-0.781134
-0.745793
-0.705914
-0.663202
-0.620749
-0.582606
-0.51933
-0.495944
-0.494302
-0.513599
-0.552151
-0.633579
-0.692979
-0.758254
-0.823707
-0.883767
-0.970546
-1.010337
-1.028161
-1.003374
-1.000263
-0.987819
-0.9693
-0.947589
-0.925012
-0.903634
-0.88528
-0.871096
-0.861308
-0.855426
-0.852458
-0.850963
-0.849304
-0.846173
-0.840892
-0.833321
-0.823781
-0.812948
-0.801501
-0.789685
-0.777235
-0.763714
-0.748893
-0.732815
-0.715775
-0.69835
-0.681265
-0.665179
-0.650529
-0.63761
-0.626484
-0.616917
-0.608615
-0.601563
-0.596021
-0.592193
-0.589904
-0.588535
-0.587069
-0.584043
-0.577715
-0.566528
-0.54958
-0.526826
-0.499043
-0.467774
-0.434969
-0.402246
-0.370434
-0.33972
-0.309932
-0.280682
-0.251496
-0.222082
-0.192558
-0.163329
-0.134728
-0.106855
-0.079716
-0.053383
-0.02791
-0.003145
0.02128
0.045763
0.070586
0.095831
0.121186
0.145696
0.167887
0.186313
0.199983
0.208545
0.212639
0.214255
0.216364
0.221818
0.232329
0.248079
0.26779
0.289061
0.309013
0.325168
0.336052
0.341262
0.341209
0.336966
0.330185
0.322793
0.316639
0.313091
0.312903
0.316271
0.322845
0.331948
0.341875
0.350306
0.355602
0.356951
0.354582
0.349836
0.344899
0.341981
0.342511
0.34701
0.355342
0.366663
0.37931
0.391293
0.401087
0.407859
0.411246
0.411325
0.408673
0.404266
0.399201
0.394423
0.390591
0.387858
0.385719
0.383359
0.380276
0.37662
0.373158
0.371084
0.371637
0.37554
0.382614
0.391788
0.401394
0.409681
0.415424
0.418195
0.418281
0.416502
0.413974
0.411607
0.409683
0.407928
0.405849
0.403057
0.399472
0.395343
0.391018
0.386659
0.382176
0.3776
0.373313
0.369743
0.366966
0.364524
0.361661
0.357611
0.351741
0.343665
0.333387
0.321476
0.309216
0.298347
0.290381
0.286091
0.285353
0.287297
0.290569
0.293516
0.294494
0.292256
0.286185
0.276373
0.263552
0.248898
0.233866
0.219964
0.208443
0.200176
0.195521
0.194076
0.194747
0.19628
0.197911
0.199487
0.201062
0.202639
0.20414
0.205296
0.205451
0.203519
0.198452
0.189887
0.178477
0.165853
0.154277
0.14592
0.142122
0.142926
0.147044
0.152353
0.156667
0.1584
0.15702
0.153336
0.149266
0.146899
0.147489
0.15113
0.156942
0.16343
0.168953
0.172277
0.173148
0.172426
0.171701
0.172643
0.176452
0.183476
0.193121
0.204117
0.214973
0.224474
0.231973
0.237455
0.241471
0.244852
0.248191
0.251358
0.253402
0.252953
0.24884
0.240582
0.228669
0.214494
0.200012
0.187235
0.17764
0.171771
0.169157
0.168471
0.168138
0.167108
0.165273
0.163495
0.163265
0.166013
0.172395
0.181986
0.193571
0.205564
0.216361
0.224753
0.230319
0.233424
0.234936
0.235837
0.236939
0.238633
0.240677
0.242363
0.243008
0.242349
0.240645
0.23863
0.237243
0.237268
0.239261
0.24365
0.250538
0.25935
0.268867
0.277676
0.284663
0.289174
0.291149
0.291162
0.290183
0.289197
0.289092
0.290725
0.294665
0.300713
0.307884
0.3149
0.320738
0.324975
0.327845
0.329993
0.332161
0.335084
0.339388
0.345228
0.352076
0.358996
0.365138
0.370099
0.373944
0.377056
0.379929
0.382809
0.385407
0.387079
0.38728
0.385735
0.382413
0.377703
0.372553
0.368183
0.365659
0.365709
0.368654
0.374253
0.381653
0.38954
0.396494
0.401342
0.40336
0.402531
0.399672
0.396038
0.392714
0.390382
0.38928
0.389137
0.389225
0.388671
0.38681
0.383394
0.378593
0.372904
0.366989
0.361485
0.356872
0.353329
0.350814
0.349066
0.347516
0.345272
0.341276
0.334691
0.32549
0.314644
0.303686
0.294147
0.287148
0.283114
0.281759
0.282562
0.285306
0.290007
0.296521
0.304357
0.312468
0.319121
0.322296
0.320497
0.313442
0.302204
0.288999
0.276892
0.237445
0.268195
0.275135
0.289751
0.311146
0.338279
0.370426
0.407498
0.44966
0.496301
0.545242
0.592684
0.633868
0.700875
0.758041
0.755665
0.697312
0.648221
0.563741
0.501135
0.433713
0.366419
0.303607
0.248266
0.201863
0.165095
0.138536
0.122449
0.1163
0.118683
0.127592
0.140434
0.153853
0.164107
0.168139
0.164557
0.153919
0.138394
0.121233
0.10602
0.064665
0.090857
0.091151
0.094617
0.099511
0.104562
0.108892
0.112103
0.114251
0.115382
0.115018
0.112174
0.105954
0.096115
0.083137
0.067944
0.051541
0.034894
0.019105
0.005401
-0.005268
-0.01261
-0.01696
-0.019037
-0.019859
-0.020613
-0.022196
-0.024876
-0.028575
-0.033303
-0.039241
-0.046535
-0.055164
-0.065182
-0.076787
-0.089968
-0.104095
-0.117739
-0.129018
-0.136326
-0.138914
-0.137138
-0.132263
-0.125832
-0.119126
-0.112984
-0.107927
-0.104333
-0.102376
-0.101823
-0.102045
-0.102364
-0.102511
-0.102744
-0.10346
-0.104864
-0.106914
-0.109498
-0.112534
-0.115773
-0.11861
-0.120124
-0.119277
-0.11526
-0.107943
-0.098148
-0.087471
-0.0778
-0.07088
-0.068016
-0.069872
-0.076309
-0.086271
-0.098015
-0.109658
-0.119651
-0.126966
-0.130981
-0.131297
-0.127667
-0.120008
-0.108497
-0.093622
-0.076289
-0.057894
-0.040127
-0.024629
-0.012793
-0.005642
-0.003741
-0.007081
-0.014937
-0.025763
-0.037271
-0.046669
-0.051137
-0.048559
-0.038221
-0.021093
0.000424
0.023125
0.043857
0.060235
0.070982
0.075963
0.075985
0.072326
0.066132
0.058022
0.048172
0.036775
0.02443
0.012196
0.001312
-0.007118
-0.012493
-0.014952
-0.015239
-0.01427
-0.012819
-0.011448
-0.010506
-0.010312
-0.011456
-0.014816
-0.021126
-0.030497
-0.042527
-0.056662
-0.071997
-0.086733
-0.098497
-0.105384
-0.106546
-0.102134
-0.093459
-0.083161
-0.074454
-0.069846
-0.070571
-0.076867
-0.088125
-0.102589
-0.117604
-0.130766
-0.140926
-0.148133
-0.152926
-0.155843
-0.157334
-0.157833
-0.157884
-0.158224
-0.159799
-0.163585
-0.170294
-0.179957
-0.191693
-0.203969
-0.215093
-0.223678
-0.22896
-0.230931
-0.230283
-0.227969
-0.224626
-0.220358
-0.214966
-0.208378
-0.200895
-0.193187
-0.186299
-0.181593
-0.180454
-0.183735
-0.191356
-0.202334
-0.215067
-0.227671
-0.238377
-0.245944
-0.249904
-0.250484
-0.248439
-0.244933
-0.241363
-0.239034
-0.238825
-0.241094
-0.245805
-0.252621
-0.260947
-0.269851
-0.278029
-0.284094
-0.287064
-0.28672
-0.283645
-0.279011
-0.274275
-0.270795
-0.26941
-0.270289
-0.273074
-0.276948
-0.280666
-0.282922
-0.282914
-0.280488
-0.275786
-0.269036
-0.260814
-0.252255
-0.244843
-0.239873
-0.238122
-0.239735
-0.244112
-0.250048
-0.256285
-0.262045
-0.267001
-0.270982
-0.273903
-0.275869
-0.276902
-0.276476
-0.273721
-0.268032
-0.260059
-0.251002
-0.242096
-0.234519
-0.229211
-0.226455
-0.225811
-0.226602
-0.228326
-0.230619
-0.233139
-0.235791
-0.23898
-0.243304
-0.249019
-0.255947
-0.263679
-0.270648
-0.276876
-0.281638
-0.284623
-0.285824
-0.285335
-0.283389
-0.28055
-0.277552
-0.274855
-0.272448
-0.26998
-0.266945
-0.262778
-0.257077
-0.250058
-0.242634
-0.235891
-0.230572
-0.227003
-0.225323
-0.225477
-0.226917
-0.228653
-0.229894
-0.230493
-0.230591
-0.230295
-0.229812
-0.229561
-0.229787
-0.230218
-0.230379
-0.229988
-0.228852
-0.226665
-0.223159
-0.21832
-0.212318
-0.205264
-0.197264
-0.188692
-0.180153
-0.172241
-0.16537
-0.159648
-0.154793
-0.150338
-0.145948
-0.141598
-0.137482
-0.134016
-0.131945
-0.132077
-0.134737
-0.139437
-0.144989
-0.149849
-0.1525
-0.151978
-0.148371
-0.14283
-0.137008
-0.13245
-0.130185
-0.130498
-0.132891
-0.136321
-0.139655
-0.141956
-0.142495
-0.140774
-0.136707
-0.130545
-0.123714
-0.117668
-0.113888
-0.113549
-0.117135
-0.124272
-0.133808
-0.144047
-0.153019
-0.158815
-0.16029
-0.157678
-0.152361
-0.146157
-0.140801
-0.137685
-0.137636
-0.140703
-0.146353
-0.153634
-0.160908
-0.165712
-0.165329
-0.15755
-0.140893
-0.114407
-0.077779
-0.031661
0.02238
0.081892
0.143323
0.202197
0.253985
0.328752
0.39718
0.375384
0.364334
0.331374
0.24887
0.193357
0.133176
0.074722
-0.052256
-0.095441
-0.048517
-0.068133
-0.079337
-0.08519
-0.089642
-0.094325
-0.099677
-0.104546
-0.107075
-0.105927
-0.100812
-0.092228
-0.081203
-0.069261
-0.058245
-0.049787
-0.044748
-0.043113
-0.044098
-0.046388
-0.048634
-0.050061
-0.050575
-0.050469
-0.050147
-0.049929
-0.049901
-0.049909
-0.049758
-0.049549
-0.049662
-0.050513
-0.052455
-0.055666
-0.059981
-0.064892
-0.06986
-0.074548
-0.07853
-0.081147
-0.0821
-0.082011
-0.081955
-0.082294
-0.083685
-0.086197
-0.089917
-0.094717
-0.100267
-0.106282
-0.112465
-0.118329
-0.123433
-0.127747
-0.131463
-0.134388
-0.13582
-0.135153
-0.132491
-0.12865
-0.124735
-0.12175
-0.120282
-0.120267
-0.121049
-0.121662
-0.121161
-0.119021
-0.115492
-0.111634
-0.109062
-0.109563
-0.114455
-0.123723
-0.135606
-0.147275
-0.15591
-0.159352
-0.156322
-0.14671
-0.131774
-0.113866
-0.095645
-0.079513
-0.067455
-0.060628
-0.058888
-0.061021
-0.065399
-0.070262
-0.073584
-0.073417
-0.068716
-0.059738
-0.047863
-0.035077
-0.023325
-0.014099
-0.008391
-0.006855
-0.009824
-0.016895
-0.026569
-0.036665
-0.045019
-0.049811
-0.080569
-0.044389
-0.034447
-0.021452
-0.00738
0.005482
0.015091
0.021081
0.024095
0.025507
0.026411
0.027084
0.027177
0.026124
0.02345
0.019013
0.013171
0.006741
0.000846
-0.003208
-0.004144
-0.001082
0.006205
0.017261
0.030959
0.045559
0.059038
0.069558
0.075814
0.077283
0.074509
0.069195
0.063721
0.060159
0.059554
0.061791
0.065843
0.070282
0.07386
0.075924
0.076327
0.075022
0.071912
0.066954
0.060295
0.052348
0.0438
0.035674
0.029296
0.025919
0.02616
0.029635
0.034905
0.039821
0.042333
0.04144
0.037719
0.032948
0.029084
0.027468
0.028582
0.031981
0.036404
0.040252
0.04235
0.042363
0.040597
0.037809
0.035085
0.033388
0.032979
0.033355
0.03372
0.033434
0.032067
0.029272
0.024922
0.019254
0.012831
0.00651
0.001288
-0.002022
-0.003036
-0.001867
0.00095
0.004564
0.0079
0.009995
0.010432
0.009406
0.007462
0.005242
0.003219
0.001363
-0.00084
-0.003822
-0.007336
-0.0106
-0.012936
-0.014023
-0.013783
-0.012435
-0.010648
-0.009473
-0.009788
-0.011792
-0.014936
-0.018073
-0.019848
-0.01934
-0.016567
-0.012392
-0.00788
-0.003562
0.000882
0.006316
0.013525
0.022807
0.033899
0.045943
0.057411
0.066485
0.071942
0.073642
0.072344
0.069339
0.06611
0.063934
0.063438
0.064502
0.06672
0.069946
0.074355
0.080124
0.08709
0.094657
0.101956
0.108013
0.112081
0.114085
0.114749
0.115308
0.116966
0.120448
0.125869
0.132725
0.139977
0.146427
0.151173
0.15385
0.154513
0.15335
0.150412
0.145466
0.138285
0.129276
0.119719
0.111357
0.105827
0.104285
0.107112
0.11377
0.122942
0.132792
0.141344
0.14687
0.148288
0.145533
0.139661
0.132498
0.125958
0.121496
0.119963
0.120746
0.124267
0.129526
0.134792
0.137901
0.137041
0.131537
0.122064
0.110242
0.09816
0.087954
0.081347
0.079254
0.081746
0.088264
0.097712
0.108494
0.118831
0.127438
0.133929
0.13865
0.142285
0.145657
0.14953
0.15426
0.159537
0.16447
0.168026
0.169684
0.169706
0.168801
0.167797
0.167561
0.168767
0.171431
0.17474
0.177434
0.178203
0.175918
0.170019
0.160963
0.150323
0.140188
0.132338
0.127874
0.127039
0.129163
0.133022
0.137328
0.141001
0.143298
0.143982
0.143316
0.141763
0.139583
0.136604
0.132191
0.125403
0.115337
0.101464
0.084048
0.064542
0.045384
0.029225
0.018136
0.013198
0.014472
0.020856
0.029916
0.038433
0.043446
0.043034
0.036702
0.025537
0.011854
-0.001851
-0.013942
-0.023794
-0.031272
-0.036377
-0.038871
-0.037819
-0.031562
-0.018222
0.003833
0.035796
0.078101
0.129781
0.188013
0.24842
0.305875
0.355189
0.431827
0.499379
0.497449
0.436212
0.388671
0.301014
0.236848
0.169048
0.104287
0.012163
-0.078713
-0.064668
-0.047392
-0.056322
-0.05748
-0.053726
-0.047641
-0.041067
-0.035201
-0.030913
-0.028803
-0.028981
-0.03102
-0.034341
-0.038273
-0.041803
-0.043892
-0.044277
-0.043783
-0.043883
-0.046082
-0.051444
-0.060126
-0.071054
-0.082299
-0.092014
-0.099161
-0.103417
-0.104825
-0.103816
-0.101299
-0.098324
-0.095623
-0.093478
-0.091739
-0.089948
-0.087547
-0.08414
-0.079609
-0.073971
-0.067176
-0.059223
-0.05044
-0.041544
-0.033598
-0.027806
-0.025003
-0.025124
-0.027242
-0.030185
-0.032907
-0.034488
-0.034447
-0.033136
-0.031388
-0.029812
-0.028595
-0.027903
-0.028124
-0.029478
-0.031828
-0.035094
-0.039458
-0.045006
-0.051338
-0.057668
-0.063276
-0.06779
-0.071187
-0.073776
-0.076137
-0.078916
-0.082371
-0.085907
-0.088288
-0.088384
-0.085545
-0.079519
-0.070562
-0.059843
-0.049552
-0.042283
-0.040114
-0.043936
-0.053115
-0.065459
-0.077742
-0.086731
-0.090126
-0.086969
-0.077693
-0.063914
-0.047908
-0.032015
-0.018108
-0.007193
0.000725
0.006209
0.009708
0.011317
0.011155
0.009785
0.008192
0.007315
0.007578
0.008727
0.010113
0.011156
0.011569
0.01129
0.010422
0.009448
0.009323
0.01103
0.014962
0.020698
0.027144
0.03298
0.037255
0.039832
0.041266
0.042183
0.042791
0.043021
0.042877
0.042486
0.04198
0.041501
0.041339
0.041959
0.043798
0.047037
0.051418
0.056132
0.060058
0.062302
0.06255
0.061038
0.058197
0.05436
0.049799
0.044862
0.040003
0.035723
0.032397
0.030222
0.029263
0.029343
0.029932
0.030219
0.029336
0.026601
0.02167
0.01462
0.006108
-0.002881
-0.011504
-0.019217
-0.025578
-0.030228
-0.03324
-0.035391
-0.037912
-0.04199
-0.048455
-0.057556
-0.068773
-0.080862
-0.092154
-0.100993
-0.106188
-0.107362
-0.105058
-0.100453
-0.094793
-0.089108
-0.084323
-0.081242
-0.080298
-0.081373
-0.083976
-0.087595
-0.091764
-0.095917
-0.099387
-0.101579
-0.102172
-0.101302
-0.099615
-0.098116
-0.097808
-0.099269
-0.102455
-0.106818
-0.1116
-0.116027
-0.119409
-0.121144
-0.120707
-0.117854
-0.112881
-0.106537
-0.099682
-0.093047
-0.087217
-0.08259
-0.079202
-0.076828
-0.0754
-0.075159
-0.076288
-0.078493
-0.081096
-0.083448
-0.084958
-0.084993
-0.082996
-0.078629
-0.071904
-0.063414
-0.054413
-0.046473
-0.040827
-0.037909
-0.037413
-0.038603
-0.04048
-0.041935
-0.042003
-0.040065
-0.035772
-0.029047
-0.02024
-0.010065
0.000716
0.011372
0.020998
0.02864
0.033809
0.036774
0.038351
0.039471
0.040848
0.042894
0.045558
0.048284
0.050387
0.051438
0.051332
0.050277
0.048851
0.047806
0.047483
0.047533
0.047286
0.046236
0.044425
0.042539
0.041586
0.042423
0.045303
0.049714
0.054495
0.058126
0.059223
0.057205
0.052628
0.04685
0.041301
0.037035
0.034639
0.034011
0.034288
0.034253
0.032937
0.029886
0.025281
0.019897
0.014706
0.010107
0.005637
0.000501
-0.005706
-0.01273
-0.019846
-0.02614
-0.030685
-0.03283
-0.032495
-0.03015
-0.026615
-0.022847
-0.019584
-0.016901
-0.014207
-0.01088
-0.006816
-0.002533
0.001055
0.003079
0.003068
0.000973
-0.002813
-0.007451
-0.011851
-0.014994
-0.016166
-0.015064
-0.011893
-0.007398
-0.002708
0.00098
0.002646
0.001551
-0.002546
-0.008918
-0.015815
-0.021166
-0.023361
-0.021676
-0.016476
-0.009144
-0.001607
0.004466
0.008355
0.01032
0.011272
0.012537
0.015434
0.02053
0.027134
0.033501
0.037618
0.038
0.03433
0.027748
0.020564
0.015293
0.013585
0.015814
0.021431
0.029259
0.037505
0.044174
0.047862
0.048118
0.045271
0.040259
0.034613
0.030205
0.028751
0.031527
0.039577
0.053914
0.075323
0.1041
0.140144
0.182983
0.231511
0.283677
0.336513
0.386343
0.429015
0.529735
0.51936
0.516989
0.492675
0.448695
0.366148
0.307103
0.245392
0.186631
0.103656
0.060681
0.037347
0.053015
0.049315
0.054117
0.064
0.075403
0.08501
0.090079
0.08892
0.081339
0.068645
0.053303
0.038585
0.027997
0.024232
0.028334
0.039559
0.055632
0.073123
0.088183
0.09762
0.099582
0.093689
0.080858
0.063051
0.042844
0.022893
0.005496
-0.007522
-0.014962
-0.016721
-0.014125
-0.009527
-0.005444
-0.003765
-0.005295
-0.009597
-0.015195
-0.020059
-0.022197
-0.020214
-0.013754
-0.003742
0.007739
0.01818
0.025402
0.027835
0.026299
0.021449
0.014389
0.006356
-0.001659
-0.00904
-0.015331
-0.020099
-0.023051
-0.024067
-0.023088
-0.020166
-0.015623
-0.009994
-0.003861
0.002247
0.007853
0.012612
0.016503
0.019923
0.023446
0.027389
0.031595
0.035635
0.039176
0.042181
0.044818
0.047303
0.049968
0.053331
0.057832
0.063504
0.069916
0.076252
0.081379
0.084282
0.084533
0.082312
0.078262
0.073575
0.069868
0.068721
0.071095
0.076945
0.085311
0.094777
0.104063
0.112601
0.120686
0.129211
0.139281
0.151782
0.166901
0.183816
0.201
0.216941
0.230516
0.241032
0.248329
0.252842
0.255347
0.256623
0.257272
0.257667
0.257947
0.258128
0.258362
0.259102
0.260841
0.263661
0.267126
0.270674
0.274139
0.277804
0.281967
0.286678
0.291809
0.297103
0.302181
0.30666
0.310248
0.312641
0.313402
0.312171
0.309124
0.304962
0.300316
0.295463
0.290763
0.286971
0.284792
0.284323
0.285022
0.285905
0.285636
0.282885
0.276919
0.268108
0.257897
0.248223
0.24078
0.236452
0.234914
0.23474
0.23407
0.231316
0.225637
0.217189
0.207008
0.196397
0.186263
0.177014
0.168646
0.160651
0.152113
0.14232
0.131297
0.119743
0.108462
0.098122
0.089345
0.082569
0.077683
0.07396
0.070356
0.065855
0.059699
0.051592
0.041814
0.031118
0.020508
0.011016
0.003479
-0.001606
-0.004021
-0.00367
-0.000575
0.004972
0.012233
0.019919
0.026286
0.029506
0.028346
0.022811
0.014082
0.003877
-0.006044
-0.014132
-0.019358
-0.021674
-0.022069
-0.021938
-0.022297
-0.023401
-0.024831
-0.025886
-0.026087
-0.025379
-0.023943
-0.021938
-0.019565
-0.017217
-0.015328
-0.014242
-0.014246
-0.015364
-0.017182
-0.019197
-0.021268
-0.023474
-0.025565
-0.026845
-0.026748
-0.025314
-0.022994
-0.020163
-0.016883
-0.012984
-0.008327
-0.003045
0.002291
0.00641
0.008534
0.008611
0.006588
0.002657
-0.00288
-0.009474
-0.016069
-0.021207
-0.023635
-0.022936
-0.019528
-0.014182
-0.007669
-0.000743
0.005719
0.010685
0.013118
0.012153
0.007309
-0.001311
-0.013052
-0.026903
-0.04147
-0.054701
-0.064074
-0.067508
-0.064177
-0.054598
-0.040423
-0.024176
-0.008769
0.003211
0.009888
0.010251
0.004505
-0.005642
-0.017518
-0.0285
-0.036683
-0.041084
-0.04183
-0.040219
-0.038197
-0.037448
-0.038813
-0.042191
-0.046591
-0.0504
-0.052147
-0.051328
-0.048608
-0.045467
-0.043663
-0.044694
-0.049307
-0.057313
-0.067896
-0.079951
-0.092295
-0.103817
-0.113427
-0.119877
-0.121855
-0.118407
-0.109383
-0.095568
-0.078588
-0.060661
-0.044161
-0.031151
-0.022969
-0.019843
-0.020837
-0.023923
-0.027768
-0.032285
-0.03743
-0.043377
-0.050236
-0.057794
-0.065346
-0.071968
-0.077086
-0.080619
-0.082632
-0.083319
-0.083402
-0.083984
-0.085737
-0.088539
-0.091775
-0.094633
-0.096278
-0.096148
-0.094328
-0.091429
-0.087961
-0.084101
-0.080134
-0.076756
-0.074776
-0.074642
-0.076466
-0.080344
-0.086365
-0.094359
-0.103788
-0.113772
-0.123208
-0.130893
-0.135889
-0.138066
-0.138254
-0.137725
-0.137603
-0.138658
-0.141421
-0.14603
-0.152012
-0.158396
-0.164075
-0.168067
-0.169552
-0.167709
-0.161482
-0.149386
-0.12955
-0.10022
-0.060609
-0.011714
0.04349
0.100617
0.154719
0.234595
0.304095
0.291279
0.289842
0.270204
0.23348
0.152397
0.09473
0.033111
-0.027172
-0.145665
-0.161141
-0.158867
-0.179058
-0.187884
-0.187897
-0.182284
-0.17418
-0.16634
-0.160946
-0.159303
-0.161713
-0.167772
-0.176642
-0.186957
-0.196935
-0.205001
-0.210353
-0.212974
-0.213281
-0.211857
-0.209299
-0.205926
-0.201691
-0.19652
-0.190636
-0.184468
-0.17843
-0.172866
-0.16813
-0.164466
-0.161942
-0.160487
-0.159994
-0.160341
-0.1614
-0.16302
-0.164992
-0.167025
-0.168766
-0.169964
-0.170667
-0.170905
-0.171028
-0.171302
-0.171884
-0.173004
-0.174719
-0.176624
-0.177988
-0.178242
-0.177247
-0.175275
-0.172898
-0.170814
-0.169652
-0.16988
-0.171925
-0.176218
-0.182852
-0.191254
-0.200291
-0.208634
-0.215182
-0.21932
-0.220769
-0.219245
-0.214431
-0.206362
-0.195779
-0.183924
-0.172117
-0.161561
-0.153255
-0.147809
-0.145264
-0.145189
-0.146968
-0.149836
-0.152841
-0.155127
-0.156236
-0.156083
-0.154658
-0.151845
-0.147617
-0.142149
-0.135719
-0.128676
-0.121444
-0.114349
-0.107489
-0.100835
-0.094549
-0.089019
-0.084603
-0.081483
-0.079663
-0.078899
-0.078609
-0.078069
-0.076872
-0.075144
-0.073292
-0.071706
-0.070862
-0.071225
-0.072779
-0.074774
-0.075972
-0.075169
-0.071722
-0.06593
-0.059012
-0.052554
-0.047653
-0.044406
-0.041944
-0.038788
-0.033473
-0.025251
-0.014497
-0.002524
0.008987
0.018278
0.023569
0.023694
0.019082
0.011756
0.004179
-0.001782
-0.005023
-0.005108
-0.0024
0.002014
0.006981
0.011814
0.016069
0.019061
0.020077
0.019037
0.016411
0.012455
0.006956
-0.000221
-0.008811
-0.018324
-0.028289
-0.038271
-0.047889
-0.056961
-0.065578
-0.073694
-0.080779
-0.086171
-0.089772
-0.09228
-0.094785
-0.098219
-0.103044
-0.109238
-0.116425
-0.124045
-0.131504
-0.138183
-0.143555
-0.147444
-0.15019
-0.152429
-0.154604
-0.156808
-0.158879
-0.160558
-0.161681
-0.16235
-0.162823
-0.163162
-0.16312
-0.162521
-0.161692
-0.161295
-0.161698
-0.162734
-0.164025
-0.165241
-0.16599
-0.165746
-0.164115
-0.161152
-0.157259
-0.152862
-0.148306
-0.143921
-0.139989
-0.136705
-0.134344
-0.133366
-0.134193
-0.136812
-0.140658
-0.144838
-0.148399
-0.150553
-0.15087
-0.149414
-0.146771
-0.143891
-0.141809
-0.141289
-0.14262
-0.145688
-0.150132
-0.155361
-0.160721
-0.165684
-0.169824
-0.172626
-0.173391
-0.171467
-0.166644
-0.159442
-0.151248
-0.144139
-0.140188
-0.140469
-0.144642
-0.151252
-0.15819
-0.163119
-0.164089
-0.160304
-0.152428
-0.142322
-0.132461
-0.125245
-0.122352
-0.124398
-0.130907
-0.140635
-0.152086
-0.163928
-0.17514
-0.184831
-0.192012
-0.195793
-0.195794
-0.192373
-0.186595
-0.180016
-0.174196
-0.170075
-0.167678
-0.166454
-0.165739
-0.164877
-0.16323
-0.160385
-0.156477
-0.152208
-0.148382
-0.145357
-0.142901
-0.140478
-0.137692
-0.134549
-0.131552
-0.129546
-0.129256
-0.130881
-0.134153
-0.138599
-0.143579
-0.148179
-0.151493
-0.153014
-0.152689
-0.150695
-0.147319
-0.142498
-0.1365
-0.129992
-0.122885
-0.115129
-0.106803
-0.098021
-0.089066
-0.080521
-0.073141
-0.067644
-0.064599
-0.064407
-0.067106
-0.07212
-0.078345
-0.08449
-0.089383
-0.09199
-0.091419
-0.087176
-0.079316
-0.068189
-0.054262
-0.038237
-0.021068
-0.003816
0.012378
0.026063
0.035447
0.038886
0.035535
0.025753
0.011257
-0.005035
-0.019702
-0.02993
-0.034423
-0.033633
-0.029418
-0.024311
-0.020575
-0.019448
-0.020782
-0.023154
-0.024488
-0.023107
-0.018749
-0.012806
-0.007708
-0.005996
-0.009373
-0.017808
-0.029409
-0.041434
-0.05161
-0.058629
-0.062164
-0.062959
-0.062628
-0.062847
-0.064456
-0.067335
-0.070914
-0.074503
-0.077508
-0.079787
-0.081897
-0.084709
-0.088677
-0.093601
-0.098921
-0.103782
-0.107903
-0.111243
-0.113872
-0.115644
-0.115496
-0.111072
-0.099204
-0.111419
-0.113778
-0.062079
0.062071
0.12461
0.186771
0.27803
0.326374
0.353673
0.336121
0.335137
0.348396
0.318723
0.301601
0.181792
0.118479
0.054226
-0.036109
-0.094811
-0.131062
-0.117142
-0.128049
-0.128624
-0.122143
-0.112018
-0.10134
-0.092448
-0.086508
-0.083428
-0.082279
-0.081838
-0.080974
-0.078948
-0.075626
-0.071494
-0.067499
-0.064785
-0.064365
-0.066671
-0.071211
-0.076596
-0.080959
-0.082615
-0.080597
-0.074803
-0.065907
-0.055119
-0.044066
-0.034548
-0.0281
-0.025522
-0.026455
-0.029366
-0.032097
-0.032769
-0.030557
-0.025933
-0.020362
-0.015699
-0.013485
-0.014418
-0.018114
-0.023199
-0.027746
-0.029912
-0.028642
-0.024072
-0.017218
-0.009226
-0.000851
0.007565
0.015959
0.024449
0.033046
0.041384
0.048929
0.055439
0.061095
0.066185
0.070891
0.075342
0.079411
0.082273
0.082612
0.079525
0.073139
0.064514
0.055391
0.04809
0.044985
0.047444
0.055151
0.066442
0.079067
0.090801
0.099965
0.10599
0.109521
0.111818
0.113886
0.116068
0.118405
0.121107
0.124441
0.128417
0.132787
0.137337
0.14182
0.145722
0.148484
0.15003
0.150881
0.151803
0.153564
0.156944
0.1625
0.170023
0.178447
0.186395
0.192843
0.197439
0.200449
0.202459
0.20412
0.205971
0.208285
0.210942
0.213561
0.215799
0.217527
0.218778
0.219708
0.220588
0.22178
0.223731
0.226944
0.231737
0.237888
0.244493
0.250227
0.253855
0.254625
0.252417
0.24775
0.241703
0.235702
0.231168
0.229205
0.230478
0.234998
0.24184
0.249237
0.255295
0.258809
0.259311
0.256519
0.250274
0.240963
0.2296
0.21745
0.205797
0.196008
0.189212
0.185652
0.184642
0.185092
0.185855
0.185714
0.183624
0.179227
0.17303
0.166097
0.159573
0.154324
0.150645
0.148122
0.14586
0.143023
0.139189
0.134446
0.12933
0.124667
0.121288
0.11962
0.11948
0.120259
0.121112
0.1211
0.119451
0.11598
0.111244
0.10612
0.101232
0.096878
0.093278
0.090682
0.089275
0.089251
0.090957
0.094634
0.100034
0.106443
0.112963
0.11854
0.121966
0.122464
0.120437
0.117316
0.114531
0.112781
0.112155
0.112532
0.113773
0.11589
0.119175
0.123996
0.130396
0.137804
0.145087
0.150636
0.153025
0.151745
0.146754
0.138946
0.130007
0.121971
0.116501
0.114104
0.114079
0.115182
0.116029
0.114978
0.111103
0.104896
0.097616
0.090839
0.085901
0.083949
0.085838
0.09155
0.099853
0.108687
0.115963
0.120191
0.120814
0.118413
0.114571
0.11137
0.110718
0.113718
0.120264
0.129018
0.137801
0.144256
0.146586
0.144253
0.138301
0.130896
0.124384
0.120593
0.120631
0.124741
0.132211
0.141549
0.150772
0.157669
0.160231
0.157251
0.148584
0.134881
0.117272
0.097313
0.076976
0.05841
0.043608
0.034094
0.030479
0.032083
0.037255
0.044291
0.051984
0.059489
0.066111
0.071483
0.075651
0.07873
0.080696
0.081445
0.08076
0.078217
0.073481
0.066803
0.059102
0.051558
0.045176
0.04061
0.038078
0.037281
0.037491
0.03789
0.037868
0.037128
0.035696
0.033955
0.032459
0.031543
0.031216
0.031325
0.031599
0.031649
0.031104
0.02981
0.027899
0.02561
0.023082
0.020303
0.017118
0.013426
0.009547
0.006328
0.004802
0.005683
0.009156
0.014939
0.022223
0.029609
0.035489
0.038661
0.038606
0.035484
0.030091
0.023627
0.017208
0.011499
0.006813
0.003442
0.001616
0.001266
0.001999
0.003211
0.004076
0.003481
0.000216
-0.006462
-0.0164
-0.02858
-0.041316
-0.052637
-0.060857
-0.065148
-0.065902
-0.064441
-0.062343
-0.061021
-0.061498
-0.063992
-0.067598
-0.070619
-0.071452
-0.069297
-0.064362
-0.057777
-0.051286
-0.046759
-0.045692
-0.048828
-0.055904
-0.065391
-0.074529
-0.080023
-0.078982
-0.069501
-0.050939
-0.024016
0.00953
0.047768
0.089275
0.133272
0.179265
0.226622
0.274281
0.32043
0.362009
0.425467
0.492117
0.465518
0.445606
0.396674
0.303503
0.241532
0.176386
0.080425
0.058799
0.014299
-0.017874
-0.037617
-0.046475
-0.047165
-0.042601
-0.035228
-0.027119
-0.020276
-0.016369
-0.016109
-0.018977
-0.023642
-0.028544
-0.032258
-0.033752
-0.032606
-0.028943
-0.023193
-0.016234
-0.009631
-0.005072
-0.003323
-0.003834
-0.005161
-0.005566
-0.003499
0.001882
0.010327
0.020599
0.031053
0.040103
0.046497
0.049747
0.050618
0.050869
0.052254
0.055633
0.060735
0.066419
0.071094
0.073312
0.072405
0.068647
0.062961
0.056529
0.050538
0.04613
0.044175
0.044917
0.04797
0.052671
0.058458
0.064952
0.071729
0.078197
0.083766
0.088034
0.090825
0.092135
0.092104
0.090985
0.089066
0.08669
0.084468
0.083308
0.084108
0.087398
0.092805
0.100123
0.108201
0.115488
0.120352
0.121614
0.119057
0.113625
0.107047
0.101107
0.097178
0.096124
0.098211
0.102962
0.109207
0.11553
0.120799
0.124309
0.125788
0.12541
0.123653
0.121114
0.118384
0.116012
0.114472
0.113928
0.11417
0.114996
0.116658
0.119847
0.125173
0.132698
0.141937
0.152059
0.162042
0.170784
0.177348
0.181255
0.182544
0.181717
0.179701
0.177605
0.176258
0.175914
0.176315
0.176947
0.177297
0.177052
0.176213
0.175058
0.173973
0.17325
0.173126
0.173927
0.175939
0.179234
0.183635
0.188623
0.193349
0.196966
0.199147
0.200229
0.200746
0.20101
0.201254
0.201871
0.203181
0.205025
0.206711
0.20731
0.205911
0.201913
0.195387
0.187094
0.178026
0.169018
0.160643
0.153239
0.146989
0.141856
0.137424
0.13293
0.127586
0.121012
0.113426
0.10533
0.097129
0.089104
0.081423
0.074028
0.066669
0.059155
0.051364
0.042976
0.033499
0.022739
0.01102
-0.001111
-0.013211
-0.024777
-0.03495
-0.042672
-0.047194
-0.0484
-0.046767
-0.043221
-0.038971
-0.035245
-0.033113
-0.033506
-0.037142
-0.044212
-0.054064
-0.065367
-0.076749
-0.087256
-0.096404
-0.104097
-0.110542
-0.116161
-0.12144
-0.126774
-0.132394
-0.138299
-0.14431
-0.150352
-0.156764
-0.164305
-0.173643
-0.184741
-0.19675
-0.208271
-0.217649
-0.223314
-0.22437
-0.221229
-0.215572
-0.209642
-0.205537
-0.204906
-0.208576
-0.216004
-0.225182
-0.23343
-0.238451
-0.238926
-0.234681
-0.226762
-0.217178
-0.207991
-0.200455
-0.194909
-0.191107
-0.188418
-0.186003
-0.183211
-0.17998
-0.176694
-0.173507
-0.169956
-0.165223
-0.158707
-0.150289
-0.140316
-0.129506
-0.118625
-0.108063
-0.097938
-0.088481
-0.07998
-0.072351
-0.064939
-0.05696
-0.04814
-0.038778
-0.029401
-0.020601
-0.013127
-0.00783
-0.005414
-0.006256
-0.010273
-0.016651
-0.023779
-0.029827
-0.033588
-0.034921
-0.034501
-0.033179
-0.031572
-0.030067
-0.028863
-0.027913
-0.026909
-0.025546
-0.023854
-0.022291
-0.021591
-0.022419
-0.02511
-0.029574
-0.035251
-0.041287
-0.046926
-0.051723
-0.055509
-0.058386
-0.060731
-0.062975
-0.06507
-0.066237
-0.065388
-0.061853
-0.055894
-0.048736
-0.042327
-0.038761
-0.039317
-0.043793
-0.050793
-0.058495
-0.065339
-0.070486
-0.074165
-0.077785
-0.083346
-0.092274
-0.104524
-0.118721
-0.132989
-0.145517
-0.154925
-0.16078
-0.163858
-0.165686
-0.167615
-0.170242
-0.173667
-0.177945
-0.183107
-0.189059
-0.195714
-0.203047
-0.210628
-0.217398
-0.222383
-0.225342
-0.226547
-0.226418
-0.225615
-0.225085
-0.225541
-0.226872
-0.228372
-0.229429
-0.229783
-0.229494
-0.229098
-0.229541
-0.231456
-0.234359
-0.236723
-0.236695
-0.232601
-0.223288
-0.20853
-0.189157
-0.166563
-0.141859
-0.11528
-0.086155
-0.053343
-0.015932
0.02589
0.070105
0.112757
0.180605
0.249066
0.264863
0.214076
0.175599
0.093045
0.034189
-0.031714
-0.098877
-0.161574
-0.24726
-0.294564
-0.319876
-0.322247
-0.28334
-0.267768
-0.245043
-0.219175
-0.193552
-0.170558
-0.151596
-0.137278
-0.127702
-0.122748
-0.122276
-0.125959
-0.132901
-0.141428
-0.14927
-0.154146
-0.154545
-0.150106
-0.141478
-0.129998
-0.117344
-0.105165
-0.094668
-0.086191
-0.079137
-0.072423
-0.065018
-0.056319
-0.046308
-0.035465
-0.024427
-0.013657
-0.003447
0.005952
0.014409
0.022009
0.028971
0.035502
0.04164
0.047174
0.051626
0.054203
0.053989
0.050514
0.044073
0.035624
0.026658
0.019069
0.014684
0.014483
0.018149
0.02444
0.031916
0.03923
0.045125
0.048657
0.049662
0.048898
0.047601
0.046932
0.047737
0.050418
0.054844
0.060383
0.066048
0.070806
0.073933
0.075226
0.075026
0.074113
0.073521
0.074285
0.076978
0.081487
0.087289
0.093829
0.100665
0.107406
0.113639
0.118919
0.122795
0.124791
0.124497
0.121742
0.116702
0.109972
0.102542
0.095629
0.090505
0.088313
0.089809
0.095074
0.103458
0.113957
0.125505
0.136847
0.146576
0.153562
0.157323
0.15807
0.156618
0.15434
0.152852
0.153274
0.155829
0.160153
0.165633
0.171424
0.176584
0.180529
0.18332
0.185411
0.187315
0.189718
0.193533
0.199413
0.207165
0.215718
0.223639
0.229542
0.232243
0.231056
0.226166
0.218615
0.209854
0.201192
0.193518
0.187281
0.182394
0.178258
0.174139
0.169579
0.164476
0.158866
0.152726
0.145904
0.138323
0.130326
0.122783
0.116748
0.112978
0.11152
0.111604
0.111883
0.110875
0.107404
0.100921
0.091586
0.080279
0.068379
0.057266
0.047778
0.039956
0.033255
0.026895
0.020138
0.012462
0.003614
-0.006336
-0.016823
-0.026868
-0.035452
-0.04185
-0.045886
-0.048158
-0.049919
-0.052426
-0.056279
-0.061233
-0.066477
-0.071084
-0.074423
-0.076363
-0.077342
-0.078201
-0.079794
-0.082568
-0.086333
-0.090338
-0.093598
-0.095346
-0.095418
-0.09442
-0.093487
-0.093618
-0.094967
-0.096803
-0.098128
-0.098259
-0.097144
-0.095628
-0.09536
-0.098157
-0.10522
-0.116657
-0.131309
-0.146859
-0.160464
-0.16982
-0.174032
-0.173689
-0.170408
-0.166378
-0.163803
-0.164133
-0.167509
-0.172848
-0.178556
-0.183298
-0.186406
-0.187876
-0.188188
-0.188135
-0.188558
-0.189918
-0.192035
-0.194281
-0.195898
-0.196202
-0.194764
-0.191648
-0.187489
-0.183139
-0.179149
-0.175838
-0.173664
-0.173131
-0.174389
-0.17714
-0.180889
-0.185151
-0.189385
-0.192897
-0.195037
-0.195386
-0.193753
-0.190176
-0.185068
-0.179401
-0.174488
-0.171399
-0.170743
-0.172871
-0.177899
-0.185409
-0.194311
-0.203194
-0.21077
-0.2159
-0.217623
-0.215586
-0.210419
-0.203588
-0.196837
-0.191743
-0.189507
-0.190642
-0.194675
-0.200315
-0.205836
-0.209383
-0.20938
-0.20509
-0.197023
-0.186832
-0.17668
-0.168505
-0.163672
-0.162791
-0.165586
-0.171116
-0.178281
-0.185992
-0.192985
-0.19792
-0.199871
-0.198625
-0.194601
-0.188803
-0.182723
-0.177792
-0.174693
-0.173223
-0.172867
-0.173322
-0.174422
-0.17605
-0.178385
-0.181919
-0.187022
-0.193513
-0.200491
-0.206436
-0.209579
-0.208577
-0.203204
-0.194513
-0.184381
-0.174717
-0.166952
-0.162088
-0.160897
-0.163653
-0.169275
-0.176211
-0.182725
-0.187318
-0.188893
-0.187066
-0.182349
-0.175894
-0.168962
-0.162622
-0.157771
-0.155074
-0.154649
-0.156118
-0.159052
-0.1632
-0.168327
-0.173948
-0.179316
-0.183711
-0.186784
-0.188715
-0.19017
-0.192053
-0.195224
-0.200162
-0.206704
-0.214148
-0.221563
-0.227755
-0.231175
-0.230267
-0.223956
-0.211576
-0.19244
-0.165842
-0.131538
-0.090121
-0.043065
0.007296
0.057831
0.10503
0.145698
0.177123
0.196744
0.202167
0.223527
0.19978
0.157937
0.073008
0.014678
-0.044954
-0.135205
-0.220541
-0.217656
-0.207236
-0.217732
-0.217882
-0.210863
-0.199898
-0.18754
-0.175359
-0.16419
-0.154662
-0.147434
-0.142928
-0.140995
-0.141027
-0.142404
-0.144762
-0.147746
-0.15071
-0.152848
-0.153524
-0.152515
-0.150199
-0.147526
-0.145699
-0.145698
-0.147984
-0.152499
-0.158781
-0.165945
-0.172547
-0.176853
-0.17767
-0.175023
-0.170058
-0.164236
-0.159169
-0.156108
-0.15532
-0.156229
-0.15777
-0.158889
-0.158791
-0.156968
-0.153372
-0.148519
-0.143077
-0.137378
-0.131464
-0.125488
-0.119894
-0.115239
-0.112072
-0.110891
-0.111684
-0.113476
-0.114653
-0.114011
-0.111022
-0.105645
-0.0987
-0.091725
-0.086545
-0.084363
-0.085301
-0.0886
-0.092999
-0.097029
-0.099286
-0.098901
-0.095846
-0.090653
-0.084041
-0.0769
-0.070296
-0.065116
-0.061751
-0.06021
-0.060325
-0.061658
-0.063441
-0.06486
-0.065268
-0.064141
-0.061239
-0.056971
-0.052258
-0.047845
-0.043782
-0.039653
-0.035038
-0.029562
-0.022921
-0.0151
-0.006336
0.003098
0.012945
0.022885
0.032609
0.0421
0.051666
0.061534
0.07154
0.081135
0.089602
0.096334
0.101029
0.103706
0.10457
0.103806
0.101515
0.097881
0.093417
0.089071
0.085992
0.085218
0.087624
0.093906
0.104203
0.117531
0.131686
0.143874
0.151624
0.153638
0.15029
0.143401
0.135416
0.1286
0.124509
0.123784
0.126176
0.130661
0.135644
0.139441
0.141039
0.140612
0.139227
0.137984
0.137391
0.137474
0.138113
0.139025
0.139629
0.139213
0.137223
0.1334
0.127883
0.121293
0.114573
0.108455
0.103081
0.098188
0.093478
0.088746
0.083817
0.078467
0.072559
0.066195
0.059749
0.053595
0.047664
0.041379
0.034054
0.02522
0.014778
0.003182
-0.008443
-0.018461
-0.025378
-0.028472
-0.02775
-0.023629
-0.017115
-0.009989
-0.004151
-0.00062
0.000612
0.00002
-0.001773
-0.003995
-0.005987
-0.007655
-0.009306
-0.011014
-0.012535
-0.013872
-0.015428
-0.017549
-0.020345
-0.024052
-0.029009
-0.034994
-0.040953
-0.045493
-0.047477
-0.046121
-0.040913
-0.031804
-0.019444
-0.005006
0.010211
0.024986
0.038228
0.049104
0.057251
0.062662
0.065345
0.065317
0.063078
0.059808
0.056911
0.055359
0.055397
0.056631
0.058213
0.05905
0.058254
0.055533
0.051201
0.046002
0.04104
0.037548
0.036422
0.037884
0.041415
0.045848
0.049632
0.051407
0.050616
0.04764
0.043528
0.039737
0.037875
0.039203
0.0441
0.052016
0.061878
0.072323
0.081844
0.089369
0.094698
0.09818
0.100025
0.100046
0.098042
0.094082
0.088451
0.081761
0.075163
0.070202
0.068271
0.070044
0.07526
0.082679
0.09026
0.095869
0.098107
0.096733
0.092505
0.086744
0.08102
0.076904
0.075467
0.076879
0.080376
0.084559
0.087861
0.089021
0.087655
0.084299
0.079862
0.075339
0.071931
0.070916
0.073086
0.078308
0.085874
0.095081
0.105195
0.115261
0.124412
0.132168
0.138147
0.141693
0.142293
0.140422
0.137531
0.135373
0.135568
0.13933
0.147093
0.158177
0.170866
0.183086
0.193075
0.199583
0.202061
0.200927
0.197471
0.19322
0.189192
0.185585
0.181985
0.177854
0.173025
0.167859
0.163016
0.159195
0.156972
0.156713
0.158682
0.162428
0.166681
0.170213
0.172111
0.172095
0.170457
0.167677
0.164095
0.159876
0.155175
0.150323
0.145909
0.142738
0.141673
0.143374
0.148017
0.155047
0.163233
0.171092
0.177375
0.181323
0.182737
0.18203
0.18007
0.177659
0.175167
0.172723
0.170622
0.169354
0.16953
0.172153
0.178854
0.191479
0.211343
0.238972
0.274398
0.317454
0.367692
0.424045
0.484514
0.546035
0.604799
0.656849
0.734083
0.804191
0.779453
0.769026
0.739922
0.66553
0.611505
0.54979
0.486456
0.427409
0.304897
0.264272
0.281308
0.312814
0.318337
0.33215
0.350098
0.368517
0.384572
0.396625
0.404421
0.408693
0.410469
0.410666
0.410175
0.409916
0.410699
0.413269
0.418396
0.426783
0.43888
0.454709
0.473854
0.495465
0.518165
0.540124
0.559473
0.574854
0.585725
0.592208
0.594621
0.593148
0.588029
0.579891
0.569723
0.558591
0.54755
0.537691
0.530066
0.525407
0.523894
0.52515
0.528208
0.531483
0.533109
0.531502
0.525719
0.515572
0.501621
0.485057
0.467419
0.450222
0.434595
0.421007
0.409263
0.39875
0.388715
0.378498
0.367759
0.356541
0.345131
0.333877
0.323223
0.313918
0.306913
0.302892
0.301931
0.303458
0.306194
0.308145
0.307021
0.301055
0.289701
0.27385
0.255561
0.23745
0.221986
0.210805
0.204261
0.201511
0.201071
0.201398
0.201302
0.200202
0.198204
0.195954
0.194291
0.193756
0.194193
0.194789
0.194549
0.192758
0.189135
0.183632
0.176101
0.166353
0.154645
0.141888
0.129268
0.117931
0.109039
0.103733
0.102615
0.105258
0.110365
0.116191
0.120735
0.12202
0.118729
0.110716
0.098803
0.084121
0.067836
0.051151
0.035103
0.020299
0.006828
-0.005628
-0.017566
-0.029326
-0.040867
-0.051932
-0.062271
-0.071596
-0.079586
-0.086158
-0.091665
-0.096729
-0.101989
-0.108173
-0.116071
-0.126011
-0.137648
-0.150448
-0.16398
-0.177634
-0.190532
-0.202037
-0.212078
-0.220868
-0.228663
-0.235837
-0.242801
-0.249726
-0.256528
-0.26336
-0.270944
-0.280234
-0.29197
-0.306501
-0.323575
-0.342238
-0.361201
-0.37938
-0.396117
-0.411215
-0.424898
-0.437557
-0.449286
-0.45959
-0.467645
-0.472807
-0.474983
-0.474794
-0.473468
-0.472525
-0.473335
-0.476675
-0.482557
-0.490294
-0.498668
-0.506271
-0.511885
-0.514686
-0.514253
-0.510617
-0.504363
-0.496626
-0.488845
-0.482306
-0.477713
-0.474999
-0.473335
-0.471397
-0.468066
-0.463106
-0.457064
-0.450647
-0.44437
-0.438552
-0.433061
-0.427018
-0.419109
-0.408411
-0.394906
-0.37932
-0.362594
-0.345479
-0.32837
-0.31116
-0.293299
-0.274296
-0.254214
-0.233705
-0.213807
-0.195773
-0.180884
-0.170019
-0.163218
-0.159586
-0.157665
-0.155904
-0.152732
-0.146566
-0.136283
-0.121793
-0.104055
-0.08459
-0.065087
-0.047333
-0.033029
-0.023308
-0.018346
-0.017263
-0.018268
-0.018985
-0.017077
-0.011127
-0.00108
0.012125
0.027222
0.042994
0.05841
0.072937
0.086871
0.101034
0.115968
0.131413
0.146356
0.159296
0.168713
0.17375
0.174687
0.172795
0.16977
0.167229
0.166465
0.168173
0.172233
0.177987
0.184694
0.191514
0.197261
0.200594
0.200615
0.197064
0.190085
0.180245
0.168771
0.157357
0.147581
0.140488
0.136382
0.134592
0.133231
0.129554
0.121016
0.106103
0.084458
0.056994
0.026092
-0.004712
-0.03181
-0.052684
-0.066405
-0.073626
-0.076432
-0.077778
-0.080472
-0.086158
-0.095036
-0.106216
-0.118054
-0.128504
-0.135856
-0.139475
-0.139973
-0.138047
-0.136543
-0.137578
-0.142373
-0.1507
-0.161033
-0.171142
-0.178739
-0.182157
-0.181027
-0.176503
-0.17073
-0.166073
-0.164567
-0.16731
-0.174023
-0.183296
-0.193357
-0.202727
-0.210427
-0.21595
-0.219301
-0.220972
-0.221698
-0.222147
-0.222796
-0.223908
-0.225565
-0.22781
-0.230714
-0.234177
-0.237774
-0.241008
-0.243734
-0.246215
-0.248933
-0.252415
-0.257171
-0.26356
-0.271516
-0.280384
-0.28922
-0.296994
-0.302537
-0.304919
-0.304166
-0.301303
-0.297701
-0.294599
-0.293135
-0.294216
-0.297984
-0.303578
-0.309454
-0.31387
-0.315182
-0.311953
-0.303087
-0.287833
-0.265589
-0.23585
-0.198394
-0.153527
-0.102292
-0.046591
0.010759
0.066239
0.116109
0.156824
0.216975
0.231188
0.229856
0.213142
0.180495
0.102283
0.044981
-0.01812
-0.081252
-0.171278
-0.265427
-0.296834
-0.24324
-0.25385
-0.256892
-0.255894
-0.253581
-0.251661
-0.250659
-0.250081
-0.249225
-0.247983
-0.246826
-0.246309
-0.246818
-0.248433
-0.250718
-0.252627
-0.252927
-0.250744
-0.245732
-0.237994
-0.228172
-0.217355
-0.206653
-0.196851
-0.188492
-0.181944
-0.17735
-0.174772
-0.174405
-0.176452
-0.180778
-0.186747
-0.193427
-0.199799
-0.204772
-0.207391
-0.207251
-0.204679
-0.200428
-0.195127
-0.189039
-0.18224
-0.174908
-0.167604
-0.161363
-0.157429
-0.156771
-0.159542
-0.164722
-0.170315
-0.174038
-0.174002
-0.169231
-0.160102
-0.14861
-0.137993
-0.131465
-0.130682
-0.134982
-0.141797
-0.14775
-0.149603
-0.175663
-0.133555
-0.116429
-0.096611
-0.077766
-0.063369
-0.05578
-0.055512
-0.06106
-0.06966
-0.078571
-0.085927
-0.090803
-0.092911
-0.092545
-0.090588
-0.088207
-0.086347
-0.085363
-0.084819
-0.083612
-0.080569
-0.075156
-0.067576
-0.058299
-0.047768
-0.036594
-0.025699
-0.015943
-0.007733
-0.001159
0.00366
0.006328
0.006136
0.002451
-0.004575
-0.013581
-0.02235
-0.028554
-0.06152
-0.026683
-0.017961
-0.005546
0.008598
0.022479
0.034482
0.043727
0.050322
0.055118
0.058894
0.061797
0.063569
0.064086
0.063422
0.061664
0.058895
0.055286
0.051128
0.04679
0.042753
0.039724
0.03854
0.039804
0.043525
0.048967
0.054761
0.059353
0.061688
0.061729
0.060423
0.059326
0.060178
0.064204
0.071392
0.080267
0.088405
0.093341
0.093298
0.087627
0.077004
0.063134
0.048084
0.033655
0.021069
0.010906
0.003183
-0.002448
-0.006325
-0.008549
-0.009209
-0.008777
-0.008237
-0.00891
-0.01207
-0.01845
-0.027844
-0.039053
-0.050193
-0.059221
-0.064549
-0.065541
-0.062715
-0.057643
-0.05242
-0.048862
-0.047864
-0.04917
-0.05162
-0.053887
-0.055231
-0.05573
-0.055975
-0.056729
-0.058747
-0.062484
-0.067738
-0.073681
-0.079331
-0.083922
-0.086795
-0.087375
-0.085586
-0.082026
-0.077504
-0.072576
-0.067745
-0.063853
-0.061851
-0.062137
-0.064231
-0.06692
-0.068586
-0.067736
-0.063651
-0.056788
-0.048497
-0.040448
-0.034242
-0.031082
-0.031475
-0.035169
-0.041355
-0.048987
-0.056968
-0.064367
-0.070567
-0.074976
-0.076703
-0.074786
-0.068793
-0.059246
-0.047134
-0.035229
-0.026217
-0.022233
-0.024192
-0.031513
-0.042432
-0.054619
-0.065867
-0.07469
-0.080626
-0.084073
-0.085848
-0.086779
-0.08735
-0.087482
-0.086666
-0.084363
-0.080261
-0.074441
-0.06754
-0.06063
-0.054791
-0.050759
-0.048794
-0.048667
-0.049701
-0.050919
-0.051515
-0.051298
-0.050605
-0.049926
-0.049721
-0.050309
-0.051592
-0.05282
-0.05283
-0.050634
-0.045853
-0.038927
-0.03104
-0.023836
-0.018993
-0.017645
-0.019899
-0.02491
-0.031393
-0.038086
-0.044061
-0.048896
-0.052705
-0.056084
-0.059816
-0.064438
-0.070011
-0.076229
-0.082452
-0.087608
-0.090389
-0.089851
-0.085749
-0.07835
-0.06821
-0.056167
-0.04342
-0.031319
-0.02086
-0.012493
-0.006418
-0.002605
-0.000436
0.001173
0.002908
0.004515
0.005255
0.004622
0.002514
-0.000938
-0.005244
-0.009239
-0.0113
-0.010205
-0.005665
0.001769
0.010766
0.019079
0.024024
0.023802
0.018372
0.009064
-0.002312
-0.01391
-0.02389
-0.03081
-0.034335
-0.03525
-0.034698
-0.033644
-0.032888
-0.033112
-0.03453
-0.036645
-0.038493
-0.039041
-0.03751
-0.033553
-0.027427
-0.020066
-0.012795
-0.006703
-0.002307
0.000264
0.001047
0.000304
-0.001394
-0.003428
-0.005457
-0.007516
-0.009775
-0.012278
-0.014964
-0.017725
-0.02034
-0.022481
-0.023834
-0.024071
-0.02271
-0.019057
-0.012139
-0.000606
0.01709
0.042283
0.075738
0.117443
0.166441
0.220636
0.276684
0.330196
0.376311
0.446719
0.469293
0.470937
0.450883
0.410724
0.329918
0.27199
0.209124
0.146035
0.086965
0.035603
-0.005089
-0.033216
-0.048203
-0.050901
-0.043543
-0.029408
-0.012165
0.004814
0.018848
0.028135
0.032135
0.031774
0.029005
0.025983
0.024309
0.024685
0.026954
0.030383
0.034147
0.037734
0.040883
0.043387
0.045122
0.046073
0.04614
0.044936
0.042034
0.037443
0.031797
0.026256
0.022248
0.021025
0.023216
0.028565
0.035967
0.043788
0.050258
0.054011
0.054576
0.052442
0.048784
0.045081
0.042634
0.042066
0.043077
0.044662
0.045772
0.045951
0.045394
0.044634
0.0443
0.044953
0.046899
0.049959
0.053398
0.056222
0.057609
0.057124
0.054847
0.051604
0.048927
0.048285
0.05023
0.054374
0.059873
0.065753
0.071005
0.074775
0.076767
0.077474
0.077934
0.079207
0.082059
0.086763
0.092839
0.099182
0.10463
0.108409
0.110224
0.110237
0.108997
0.107302
0.105992
0.105693
0.106648
0.108689
0.111441
0.114536
0.117479
0.119508
0.119711
0.117295
0.111979
0.104265
0.095395
0.087094
0.081119
0.07873
0.080432
0.085896
0.093971
0.102973
0.111256
0.117762
0.122157
0.124686
0.126023
0.126905
0.127731
0.128667
0.130038
0.132351
0.135936
0.140808
0.146876
0.153883
0.161024
0.166952
0.170432
0.170934
0.168679
0.164463
0.159456
0.154913
0.151864
0.150997
0.15276
0.157321
0.164286
0.172687
0.181298
0.188815
0.193893
0.195328
0.192391
0.185096
0.174271
0.161556
0.14913
0.139047
0.132592
0.129952
0.130309
0.132285
0.134383
0.13523
0.133791
0.129593
0.122908
0.114683
0.106103
0.098107
0.091194
0.085485
0.080881
0.077105
0.073748
0.070427
0.066747
0.062137
0.056052
0.048395
0.039694
0.03075
0.022158
0.014286
0.007507
0.00212
-0.001915
-0.004936
-0.007178
-0.008546
-0.0088
-0.00776
-0.005337
-0.001688
0.002528
0.006344
0.009092
0.010762
0.011789
0.012623
0.013382
0.013732
0.012977
0.01037
0.005562
-0.001065
-0.008425
-0.015129
-0.020056
-0.022682
-0.023028
-0.021472
-0.018834
-0.016301
-0.014792
-0.014164
-0.013273
-0.010945
-0.006625
-0.000223
0.008048
0.017551
0.027311
0.036307
0.04355
0.047949
0.048516
0.045036
0.038379
0.030098
0.021809
0.014831
0.01
0.007454
0.006465
0.005733
0.004089
0.001055
-0.00293
-0.006628
-0.008519
-0.007581
-0.003835
0.001577
0.00677
0.009747
0.00896
0.003663
-0.005816
-0.017975
-0.030615
-0.041689
-0.049766
-0.053988
-0.054081
-0.05041
-0.043771
-0.03507
-0.025226
-0.015351
-0.006772
-0.000477
0.003409
0.00536
0.005797
0.004899
0.002832
-0.000126
-0.003647
-0.007338
-0.0108
-0.013859
-0.016612
-0.019145
-0.021285
-0.022601
-0.022821
-0.02223
-0.021493
-0.021073
-0.020895
-0.020593
-0.019867
-0.0186
-0.016922
-0.015242
-0.014019
-0.013402
-0.013178
-0.013199
-0.01365
-0.014732
-0.016381
-0.018521
-0.021175
-0.023961
-0.025763
-0.025311
-0.02182
-0.014967
-0.004884
0.007385
0.019716
0.029627
0.035292
0.035943
0.031788
0.023985
0.014424
0.004976
-0.003105
-0.009009
-0.011972
-0.011372
-0.007179
-0.000181
0.008065
0.015454
0.019758
0.019345
0.01385
0.00435
-0.007015
-0.017619
-0.025054
-0.027832
-0.025812
-0.020159
-0.012804
-0.005685
-0.000146
0.003323
0.004848
0.004848
0.003777
0.001929
-0.000628
-0.003874
-0.007571
-0.011101
-0.013623
-0.014434
-0.013284
-0.010578
-0.007377
-0.005048
-0.004488
-0.005354
-0.005985
-0.003849
0.004093
-0.00961
0.01703
0.089104
0.13991
0.198292
0.259359
0.317167
0.39908
0.444519
0.498981
0.461385
0.435753
0.375733
0.334613
0.285513
0.231797
0.176804
0.123646
0.075126
0.033862
0.002175
-0.018336
-0.027189
-0.025355
-0.015367
-0.000854
0.014408
0.02738
0.036228
0.040413
0.040542
0.038067
0.034897
0.032808
0.032895
0.035374
0.039658
0.044693
0.049407
0.05293
0.054642
0.05415
0.051172
0.045516
0.03736
0.027432
0.016838
0.006759
-0.00157
-0.006824
-0.007941
-0.004615
0.002605
0.012642
0.024163
0.035634
0.04554
0.052857
0.057216
0.058676
0.057611
0.054755
0.051005
0.046932
0.04261
0.03806
0.033561
0.029313
0.025137
0.020763
0.016258
0.012025
0.008544
0.006235
0.005366
0.005813
0.006944
0.007827
0.007571
0.005493
0.001258
-0.004832
-0.011729
-0.017944
-0.022051
-0.023122
-0.021087
-0.016874
-0.012059
-0.008169
-0.006167
-0.006388
-0.008725
-0.012687
-0.017298
-0.021227
-0.023074
-0.021472
-0.015217
-0.00374
0.012427
0.031637
0.051558
0.069545
0.083067
0.090325
0.090951
0.086203
0.078398
0.070046
0.063229
0.059132
0.057784
0.058245
0.059225
0.059713
0.059277
0.058097
0.056926
0.056891
0.059069
0.063948
0.071197
0.079948
0.089059
0.097211
0.103196
0.106404
0.107112
0.106308
0.105274
0.10538
0.107777
0.112842
0.119855
0.127262
0.133293
0.136393
0.135624
0.131255
0.124913
0.118897
0.115127
0.114567
0.117299
0.122717
0.129629
0.136668
0.142871
0.147849
0.151491
0.1537
0.154497
0.153983
0.152056
0.148423
0.142993
0.136224
0.129033
0.122164
0.11561
0.108663
0.100605
0.091385
0.081779
0.073052
0.066627
0.063741
0.064929
0.069547
0.075833
0.081443
0.084113
0.08224
0.075435
0.064829
0.052707
0.041496
0.032851
0.027362
0.024646
0.02365
0.023134
0.022144
0.020279
0.01763
0.014603
0.011563
0.008644
0.005887
0.003151
0.000216
-0.003004
-0.006366
-0.009641
-0.01265
-0.015371
-0.01802
-0.020881
-0.024082
-0.027556
-0.031082
-0.034351
-0.037088
-0.039141
-0.040376
-0.040534
-0.039374
-0.036935
-0.03355
-0.029634
-0.025552
-0.021701
-0.018584
-0.016673
-0.016173
-0.016895
-0.018434
-0.020429
-0.022743
-0.025483
-0.028941
-0.033436
-0.039121
-0.04582
-0.053149
-0.060776
-0.068408
-0.075614
-0.081875
-0.086718
-0.089832
-0.091066
-0.090332
-0.087555
-0.082777
-0.07636
-0.069155
-0.062285
-0.056765
-0.053407
-0.052811
-0.055158
-0.059953
-0.066061
-0.072221
-0.077546
-0.081667
-0.084706
-0.087143
-0.089487
-0.091912
-0.094183
-0.095985
-0.097303
-0.098396
-0.099392
-0.100132
-0.100552
-0.101039
-0.102227
-0.104554
-0.108123
-0.112881
-0.118661
-0.125039
-0.131284
-0.136473
-0.139689
-0.140312
-0.138259
-0.134021
-0.128517
-0.122834
-0.117908
-0.114178
-0.11143
-0.109097
-0.106677
-0.103876
-0.100661
-0.097372
-0.09469
-0.093316
-0.093523
-0.095127
-0.097801
-0.101097
-0.10407
-0.105205
-0.102981
-0.096706
-0.086968
-0.075475
-0.064573
-0.056818
-0.054521
-0.059034
-0.070141
-0.086072
-0.103852
-0.119719
-0.129939
-0.132074
-0.125905
-0.113281
-0.09732
-0.081741
-0.070188
-0.065298
-0.067909
-0.076973
-0.09009
-0.104182
-0.116152
-0.123648
-0.12555
-0.121987
-0.114143
-0.104001
-0.093866
-0.085837
-0.081518
-0.081905
-0.087168
-0.096441
-0.107993
-0.119586
-0.128816
-0.133692
-0.133357
-0.1283
-0.119931
-0.109923
-0.099706
-0.090231
-0.081899
-0.07465
-0.06823
-0.062641
-0.058468
-0.056799
-0.058782
-0.065088
-0.075553
-0.089201
-0.104355
-0.118778
-0.130103
-0.136437
-0.136653
-0.130378
-0.117864
-0.09977
-0.076909
-0.050015
-0.019571
0.014264
0.051461
0.091741
0.134267
0.177456
0.218863
0.255302
0.283322
0.330988
0.33574
0.32334
0.29453
0.222959
0.170949
0.11171
0.049991
-0.008878
-0.091355
-0.137514
-0.161873
-0.135363
-0.135006
-0.126027
-0.112407
-0.097883
-0.085155
-0.075698
-0.069804
-0.066684
-0.064965
-0.06344
-0.061447
-0.058767
-0.055521
-0.052234
-0.049672
-0.048457
-0.048863
-0.050812
-0.053909
-0.057551
-0.061125
-0.064352
-0.06746
-0.070906
-0.074881
-0.078991
-0.08235
-0.084009
-0.083383
-0.080489
-0.075955
-0.070846
-0.066245
-0.062891
-0.061158
-0.061112
-0.062344
-0.063902
-0.064744
-0.06435
-0.062942
-0.061187
-0.059802
-0.059238
-0.059534
-0.060515
-0.06208
-0.064044
-0.065766
-0.066251
-0.064767
-0.061226
-0.056089
-0.050317
-0.045351
-0.042567
-0.042624
-0.045527
-0.051051
-0.058615
-0.066769
-0.073388
-0.076686
-0.075885
-0.071003
-0.062551
-0.051726
-0.040394
-0.030369
-0.022822
-0.018426
-0.017578
-0.020162
-0.025311
-0.031845
-0.038923
-0.046094
-0.052885
-0.058593
-0.062445
-0.063674
-0.061422
-0.054928
-0.044194
-0.030427
-0.015798
-0.002824
0.006316
0.010284
0.008829
0.002914
-0.005461
-0.013876
-0.020226
-0.023283
-0.023008
-0.020503
-0.01734
-0.014523
-0.01195
-0.00884
-0.004514
0.001254
0.008238
0.015702
0.022368
0.026762
0.027778
0.024994
0.018687
0.009811
-0.000199
-0.009892
-0.01815
-0.024107
-0.026967
-0.026209
-0.022064
-0.015662
-0.008587
-0.002233
0.002579
0.005679
0.00736
0.008067
0.008105
0.007522
0.006342
0.004766
0.002959
0.000781
-0.002108
-0.00587
-0.010229
-0.014645
-0.018633
-0.021945
-0.024615
-0.026867
-0.028956
-0.030906
-0.032561
-0.034045
-0.03586
-0.038464
-0.041979
-0.046325
-0.051556
-0.058099
-0.066472
-0.076674
-0.087808
-0.098237
-0.106176
-0.110396
-0.110606
-0.107465
-0.102398
-0.097324
-0.09419
-0.094327
-0.09818
-0.105478
-0.11538
-0.126533
-0.137217
-0.145578
-0.149959
-0.149239
-0.143079
-0.132085
-0.117786
-0.102305
-0.087733
-0.07553
-0.066259
-0.059607
-0.054541
-0.049645
-0.043734
-0.036672
-0.029716
-0.024757
-0.023129
-0.025059
-0.029944
-0.036703
-0.043885
-0.050053
-0.054361
-0.056617
-0.056849
-0.055043
-0.051336
-0.046164
-0.040075
-0.033675
-0.027812
-0.023545
-0.021818
-0.023046
-0.026814
-0.031942
-0.03684
-0.040114
-0.041069
-0.039771
-0.036802
-0.033089
-0.029804
-0.028126
-0.028938
-0.032652
-0.039136
-0.047523
-0.056196
-0.063256
-0.067086
-0.06673
-0.062085
-0.053969
-0.044054
-0.034566
-0.027594
-0.024459
-0.025384
-0.02942
-0.034835
-0.039893
-0.043566
-0.045803
-0.047273
-0.048824
-0.051055
-0.05406
-0.057296
-0.0596
-0.059544
-0.056195
-0.049698
-0.041182
-0.032264
-0.024553
-0.019315
-0.01722
-0.018212
-0.021738
-0.027153
-0.033726
-0.040405
-0.046042
-0.049889
-0.051669
-0.051285
-0.048816
-0.044814
-0.040343
-0.036567
-0.034332
-0.033958
-0.035163
-0.03722
-0.039359
-0.041173
-0.042695
-0.044059
-0.045321
-0.046523
-0.047632
-0.048477
-0.048924
-0.049064
-0.049132
-0.04926
-0.049372
-0.04938
-0.049445
-0.049923
-0.050988
-0.052411
-0.053824
-0.055011
-0.055685
-0.055156
-0.052554
-0.047259
-0.038963
-0.027686
-0.014168
-0.000178
0.012091
0.021041
0.025904
0.026374
0.022592
0.015411
0.006332
-0.0031
-0.011969
-0.020206
-0.028312
-0.036738
-0.045367
-0.053498
-0.060149
-0.064287
-0.065114
-0.062479
-0.057081
-0.050229
-0.043458
-0.038307
-0.035953
-0.036748
-0.04017
-0.045234
-0.050971
-0.056673
-0.061998
-0.067003
-0.07194
-0.076975
-0.081926
-0.086055
-0.08831
-0.087722
-0.083748
-0.076542
-0.067064
-0.056802
-0.047234
-0.039427
-0.033991
-0.030921
-0.029228
-0.026884
-0.021502
-0.01131
0.004466
0.025853
0.05234
0.083016
0.11689
0.153249
0.191549
0.230852
0.269454
0.305069
0.335025
0.386599
0.433782
0.400192
0.375864
0.306889
0.259779
0.203955
0.144066
0.085119
0.031796
-0.04337
-0.079253
-0.095505
-0.072447
-0.0708
-0.06329
-0.054084
-0.046497
-0.042292
-0.041758
-0.043951
-0.047099
-0.049419
-0.049826
-0.048013
-0.044268
-0.039515
-0.035203
-0.032728
-0.032779
-0.035148
-0.038899
-0.0427
-0.04533
-0.046152
-0.0452
-0.042839
-0.039598
-0.036213
-0.033405
-0.031357
-0.029563
-0.027335
-0.024245
-0.020138
-0.015101
-0.009604
-0.004528
-0.000693
0.001574
0.002304
0.001626
-0.000257
-0.003021
-0.006281
-0.00972
-0.01303
-0.015784
-0.017436
-0.017489
-0.015757
-0.012513
-0.008392
-0.004097
-0.000115
0.003298
0.005997
0.008041
0.00985
0.012061
0.015031
0.018558
0.022016
0.0246
0.025563
0.024587
0.022151
0.01953
0.018282
0.01968
0.024452
0.032602
0.043208
0.054579
0.064927
0.07295
0.077883
0.079346
0.077337
0.07221
0.064379
0.05424
0.042643
0.031337
0.022592
0.018376
0.019908
0.02751
0.040399
0.056695
0.074027
0.090285
0.10382
0.113309
0.117806
0.117062
0.11175
0.103104
0.092486
0.081327
0.071145
0.063344
0.05889
0.058112
0.060622
0.065382
0.071023
0.076348
0.080701
0.08405
0.086868
0.089965
0.094297
0.100588
0.109131
0.118912
0.128636
0.136888
0.142594
0.145338
0.145384
0.143501
0.140813
0.138598
0.137881
0.139082
0.142018
0.146068
0.150306
0.153766
0.15567
0.155356
0.152218
0.146012
0.137243
0.12725
0.117865
0.110786
0.107004
0.106669
0.109255
0.113815
0.119147
0.123894
0.126798
0.126904
0.123468
0.115762
0.103403
0.086997
0.068199
0.0492
0.032165
0.018723
0.009478
0.003964
0.001134
-0.000009
-0
0.001004
0.002913
0.005631
0.009085
0.01303
0.016855
0.019708
0.020912
0.020373
0.018635
0.016419
0.014049
0.011295
0.007612
0.002599
-0.003426
-0.009178
-0.012932
-0.013442
-0.010497
-0.004869
0.002019
0.008518
0.013169
0.01501
0.013643
0.009144
0.002044
-0.006777
-0.01642
-0.026214
-0.035591
-0.043784
-0.049808
-0.052798
-0.05242
-0.049116
-0.044015
-0.038429
-0.033309
-0.029123
-0.026068
-0.024053
-0.022532
-0.020677
-0.017798
-0.013558
-0.008009
-0.001637
0.004746
0.01033
0.014487
0.016642
0.016232
0.01314
0.008066
0.002329
-0.002671
-0.005835
-0.006463
-0.004326
0.000351
0.007047
0.014885
0.022366
0.027392
0.028084
0.023669
0.014642
0.002538
-0.010447
-0.02182
-0.029398
-0.031955
-0.029559
-0.023425
-0.015367
-0.007337
-0.000933
0.00316
0.005289
0.006239
0.006445
0.005753
0.003685
-0.000264
-0.006425
-0.014551
-0.023389
-0.030863
-0.034989
-0.034745
-0.030193
-0.022204
-0.012268
-0.002246
0.005948
0.011215
0.012986
0.011344
0.006963
0.00079
-0.006266
-0.013569
-0.020645
-0.026838
-0.031164
-0.032536
-0.030253
-0.024395
-0.015808
-0.005793
0.00417
0.012565
0.018139
0.020266
0.018987
0.014901
0.009101
0.002903
-0.002765
-0.007651
-0.011817
-0.015312
-0.018169
-0.020165
-0.020522
-0.018222
-0.012787
-0.004643
0.00516
0.015357
0.024622
0.031668
0.035544
0.036
0.033576
0.029265
0.024053
0.018718
0.013846
0.0098
0.006629
0.004215
0.002564
0.001685
0.001144
0.000198
-0.001484
-0.003481
-0.005062
-0.005774
-0.005459
-0.004171
-0.002369
-0.000901
-0.00054
-0.001593
-0.003865
-0.006893
-0.010177
-0.013224
-0.015568
-0.016864
-0.017002
-0.016177
-0.014762
-0.013059
-0.011215
-0.009227
-0.007052
-0.004702
-0.002127
0.000786
0.004115
0.007712
0.010876
0.012365
0.010868
0.005608
-0.003248
-0.014591
-0.026537
-0.036705
-0.042812
-0.043296
-0.037529
-0.025688
-0.00848
0.013321
0.039563
0.071347
0.110702
0.159132
0.216078
0.278524
0.341619
0.432404
0.54958
0.618082
0.534773
0.502625
0.443502
0.346378
0.274552
0.20049
0.13157
0.031979
-0.047963
-0.038956
-0.013954
-0.015992
-0.010395
-0.00143
0.007658
0.015076
0.020376
0.02395
0.02645
0.028417
0.030143
0.031618
0.032543
0.032377
0.030516
0.026614
0.020871
0.01406
0.007245
0.001402
-0.002792
-0.004858
-0.00432
-0.000954
0.004675
0.011165
0.016835
0.020282
0.020655
0.018001
0.013522
0.009085
0.006152
0.005116
0.005524
0.006659
0.007942
0.009204
0.010973
0.0145
-0.014722
0.031463
0.045013
0.060164
0.074293
0.084215
0.087392
0.083271
0.073591
0.061424
0.049938
0.041684
0.038192
0.039513
0.044282
0.050512
0.056344
0.060302
0.061591
0.06056
0.0585
0.0566
0.055353
0.054884
0.055296
0.056451
0.057889
0.059292
0.060881
0.063226
0.066808
0.071808
0.077906
0.083943
0.088144
0.089017
0.086102
0.080014
0.072059
0.063981
0.057702
0.05477
0.055882
0.060678
0.067922
0.075992
0.083348
0.088937
0.092506
0.094529
0.095775
0.096859
0.098062
0.099396
0.100708
0.1018
0.102623
0.103376
0.104417
0.106029
0.108182
0.11054
0.112453
0.11302
0.111556
0.108157
0.103809
0.100076
0.098718
0.101302
0.108641
0.12024
0.134194
0.147692
0.157878
0.162714
0.161541
0.155224
0.145771
0.135517
0.126305
0.119064
0.113924
0.110519
0.108279
0.106635
0.105285
0.10446
0.104787
0.106671
0.109827
0.113397
0.116413
0.118055
0.117763
0.115437
0.111454
0.106312
0.100359
0.093802
0.086701
0.078829
0.069664
0.058714
0.046076
0.03272
0.0203
0.01065
0.005157
0.004315
0.007605
0.013691
0.020858
0.027392
0.031721
0.032451
0.028595
0.020067
0.007858
-0.006339
-0.020838
-0.034491
-0.046705
-0.057025
-0.064908
-0.069959
-0.072216
-0.07212
-0.070224
-0.066953
-0.06257
-0.057349
-0.051871
-0.047196
-0.04458
-0.044699
-0.047189
-0.05109
-0.055593
-0.060266
-0.064903
-0.069414
-0.073703
-0.077588
-0.080918
-0.083697
-0.085892
-0.087207
-0.087164
-0.085487
-0.082421
-0.078644
-0.074973
-0.072348
-0.07182
-0.074209
-0.079618
-0.087321
-0.096085
-0.104398
-0.110619
-0.113527
-0.113059
-0.110633
-0.108489
-0.108318
-0.110405
-0.113765
-0.116552
-0.116526
-0.148821
-0.10172
-0.087505
-0.071641
-0.057035
-0.046314
-0.041383
-0.042963
-0.050266
-0.061242
-0.073569
-0.085452
-0.09571
-0.103612
-0.108888
-0.111697
-0.11245
-0.111651
-0.109871
-0.10774
-0.105762
-0.10407
-0.102446
-0.100713
-0.099116
-0.098226
-0.098562
-0.100387
-0.10367
-0.10801
-0.112639
-0.116597
-0.118979
-0.119172
-0.116977
-0.112747
-0.107503
-0.102737
-0.0998
-0.099306
-0.101064
-0.104383
-0.108277
-0.111675
-0.113873
-0.114971
-0.115762
-0.117146
-0.119718
-0.123811
-0.129493
-0.13622
-0.142741
-0.147729
-0.150289
-0.149837
-0.146138
-0.139783
-0.132328
-0.125696
-0.121419
-0.120433
-0.123015
-0.128382
-0.134609
-0.13946
-0.141361
-0.13976
-0.135139
-0.12902
-0.12364
-0.1209
-0.121464
-0.124708
-0.129199
-0.133205
-0.135255
-0.134648
-0.131644
-0.127114
-0.122001
-0.117163
-0.113293
-0.110592
-0.108574
-0.106312
-0.102862
-0.09777
-0.091546
-0.085535
-0.081148
-0.079286
-0.080261
-0.083959
-0.089807
-0.096756
-0.103523
-0.109017
-0.112583
-0.114143
-0.114255
-0.113843
-0.1134
-0.112515
-0.110383
-0.106691
-0.101975
-0.097391
-0.094314
-0.093941
-0.096999
-0.103472
-0.112496
-0.12255
-0.13184
-0.138823
-0.142696
-0.14362
-0.142518
-0.140555
-0.138551
-0.136817
-0.135298
-0.133786
-0.132124
-0.130469
-0.129285
-0.129034
-0.129993
-0.132311
-0.136071
-0.140931
-0.145766
-0.148772
-0.148012
-0.141914
-0.129392
-0.109869
-0.0834
-0.050538
-0.012058
0.031128
0.077814
0.126304
0.174441
0.219786
0.259634
0.322676
0.34508
0.349146
0.335949
0.306666
0.232762
0.178405
0.117076
0.054402
-0.003865
-0.125159
-0.132072
-0.145905
-0.121785
-0.12343
-0.120366
-0.116156
-0.113163
-0.112352
-0.113612
-0.116252
-0.119338
-0.122051
-0.123991
-0.125149
-0.125535
-0.124838
-0.122351
-0.117292
-0.109415
-0.099478
-0.089074
-0.079967
-0.07349
-0.070447
-0.071246
-0.075923
-0.084033
-0.094638
-0.106436
-0.118026
-0.128353
-0.136938
-0.143578
-0.147739
-0.148474
-0.145085
-0.137715
-0.127193
-0.114637
-0.101356
-0.08876
-0.077973
-0.069562
-0.063681
-0.060219
-0.058569
-0.057628
-0.056378
-0.05444
-0.052028
-0.049561
-0.04742
-0.045994
-0.045647
-0.046396
-0.047809
-0.049196
-0.049915
-0.049526
-0.047786
-0.044659
-0.040423
-0.035638
-0.030883
-0.026496
-0.022663
-0.01965
-0.017772
-0.017215
-0.017971
-0.019675
-0.021559
-0.022847
-0.023116
-0.022183
-0.019882
-0.016231
-0.011696
-0.006946
-0.00242
0.001709
0.005376
0.008674
0.011847
0.015044
0.0181
0.020797
0.023232
0.025715
0.028491
0.031644
0.035127
0.038749
0.042282
0.045493
0.048019
0.049257
0.048679
0.046372
0.043096
0.039965
0.038177
0.038691
0.041869
0.047267
0.053753
0.060153
0.065865
0.070868
0.07544
0.080012
0.085063
0.090832
0.096874
0.102161
0.105653
0.106805
0.105861
0.103938
0.102687
0.103663
0.107765
0.115195
0.125582
0.137765
0.149771
0.159495
0.165303
0.166088
0.161287
0.151247
0.137485
0.122223
0.107662
0.095552
0.086988
0.082169
0.080269
0.079835
0.079605
0.079062
0.078269
0.077555
0.077304
0.077863
0.079253
0.080844
0.081432
0.079893
0.075826
0.069491
0.061438
0.052244
0.042412
0.032175
0.021566
0.010745
0.000285
-0.0088
-0.015361
-0.018553
-0.018116
-0.01451
-0.008942
-0.003206
0.000773
0.001658
-0.000786
-0.005771
-0.011985
-0.018095
-0.023011
-0.026108
-0.02739
-0.027374
-0.026792
-0.026345
-0.026618
-0.028001
-0.03043
-0.033206
-0.035256
-0.035646
-0.03402
-0.030809
-0.027056
-0.023827
-0.021586
-0.019984
-0.018105
-0.014857
-0.009374
-0.001393
0.00855
0.019187
0.028903
0.036165
0.03978
0.039183
0.034688
0.027267
0.017942
0.007547
-0.003123
-0.013101
-0.021467
-0.027069
-0.029159
-0.02749
-0.022439
-0.015001
-0.006576
0.001436
0.008034
0.012688
0.015264
0.015913
0.01495
0.012691
0.009312
0.004869
-0.000585
-0.006901
-0.013629
-0.019777
-0.023843
-0.024435
-0.02102
-0.013942
-0.004024
0.007375
0.018246
0.026485
0.030684
0.03039
0.025956
0.018617
0.010531
0.004146
0.001202
0.002284
0.006962
0.013939
0.021076
0.025885
0.026519
0.022445
0.014441
0.004261
-0.005732
-0.013156
-0.016397
-0.015118
-0.010088
-0.002737
0.005137
0.01175
0.015844
0.016969
0.015397
0.011948
0.007732
0.003888
0.001179
-0.000144
-0.000114
0.001329
0.004435
0.00943
0.016298
0.024615
0.03345
0.041507
0.047549
0.050714
0.050651
0.047498
0.041807
0.034461
0.02643
0.018585
0.011802
0.006982
0.004834
0.005804
0.010106
0.017471
0.026686
0.035666
0.042309
0.045308
0.044296
0.039718
0.032822
0.025397
0.019014
0.014508
0.012141
0.011893
0.013248
0.015103
0.016488
0.01724
0.017752
0.018238
0.018412
0.017826
0.016287
0.013879
0.010956
0.008186
0.006314
0.005803
0.006755
0.009139
0.012898
0.017598
0.022153
0.025292
0.026262
0.025083
0.02215
0.017879
0.012717
0.007303
0.002379
-0.001415
-0.003721
-0.004577
-0.0045
-0.004235
-0.00403
-0.003147
-0.000032
0.007162
0.020167
0.040256
0.067887
0.102595
0.143175
0.18789
0.234606
0.280912
0.324164
0.361383
0.389174
0.441802
0.447961
0.429571
0.386455
0.292836
0.228296
0.158907
0.0917
-0.003836
-0.056173
-0.084012
-0.088971
-0.060219
-0.05262
-0.039475
-0.024491
-0.010367
0.001213
0.009444
0.014322
0.016428
0.016484
0.014969
0.012091
0.007986
0.002774
-0.003366
-0.009975
-0.016139
-0.020637
-0.022349
-0.020684
-0.015765
-0.008492
-0.000494
0.006156
0.009714
0.009442
0.005767
0.00001
-0.005939
-0.01007
-0.011002
-0.008559
-0.003743
0.001761
0.006095
0.007807
0.006349
0.002146
-0.003691
-0.009586
-0.013672
-0.014365
-0.011301
-0.005728
0.000204
0.004649
0.006752
0.006649
0.005245
0.003785
-0.027802
0.003696
0.005254
0.007735
0.010707
0.013346
0.015193
0.016843
0.019497
0.023827
0.029341
0.03467
0.038158
0.038328
0.034431
0.026928
0.017251
0.007047
-0.002265
-0.009509
-0.013927
-0.015523
-0.015092
-0.013669
-0.011784
-0.009166
-0.005191
0.000498
0.007865
0.016559
0.025832
0.034542
0.041614
0.046385
0.048729
0.048983
0.047934
0.046679
0.046234
0.047059
0.049052
0.051907
0.05526
0.058737
0.061963
0.06461
0.066465
0.067553
0.068175
0.068744
0.069667
0.071322
0.073858
0.076965
0.07997
0.082111
0.082757
0.081671
0.079357
0.077133
0.076628
0.078938
0.084061
0.090988
0.09821
0.104227
0.107968
0.109101
0.108135
0.10617
0.104339
0.103307
0.103199
0.103846
0.105025
0.106712
0.10937
0.113869
0.120712
0.129205
0.137523
0.143567
0.145751
0.143265
0.136153
0.125352
0.112443
0.098951
0.085809
0.073299
0.061319
0.049677
0.03842
0.027936
0.01888
0.011788
0.006797
0.003684
0.002115
0.001717
0.001869
0.001724
0.000676
-0.00125
-0.003441
-0.004999
-0.005088
-0.003287
0.000045
0.003592
0.005415
0.003693
-0.002473
-0.012548
-0.024423
-0.034788
-0.070377
-0.039489
-0.032764
-0.022836
-0.013293
0.022938
-0.00765
-0.014229
-0.025838
-0.039682
-0.05246
-0.061448
-0.065284
-0.06418
-0.059533
-0.053142
-0.046602
-0.041131
-0.03755
-0.036264
-0.037403
-0.040865
-0.046193
-0.052519
-0.058843
-0.06439
-0.068497
-0.070341
-0.069158
-0.064706
-0.057458
-0.048493
-0.039219
-0.031048
-0.02493
-0.021051
-0.019052
-0.018581
-0.019383
-0.021239
-0.024026
-0.027814
-0.032724
-0.038661
-0.045165
-0.051449
-0.05659
-0.059768
-0.060399
-0.05821
-0.053375
-0.046667
-0.039402
-0.033173
-0.029673
-0.030429
-0.036192
-0.04632
-0.058919
-0.071581
-0.081893
-0.087754
-0.087926
-0.082504
-0.07283
-0.060999
-0.049322
-0.039929
-0.034358
-0.033232
-0.0363
-0.042624
-0.050746
-0.058932
-0.065562
-0.069453
-0.069846
-0.066365
-0.059273
-0.049605
-0.038893
-0.028866
-0.021257
-0.017533
-0.018597
-0.024642
-0.035107
-0.048735
-0.063717
-0.077992
-0.089614
-0.097171
-0.100007
-0.098236
-0.092589
-0.084235
-0.074448
-0.064459
-0.055396
-0.048161
-0.043123
-0.04014
-0.038782
-0.038527
-0.038859
-0.039295
-0.03955
-0.039739
-0.040296
-0.041596
-0.04371
-0.046408
-0.049249
-0.051696
-0.053294
-0.053974
-0.054195
-0.054744
-0.056285
-0.059022
-0.0627
-0.066763
-0.070325
-0.072269
-0.071848
-0.069243
-0.065366
-0.061231
-0.057607
-0.054965
-0.053282
-0.051929
-0.050274
-0.048433
-0.047233
-0.04763
-0.050257
-0.055326
-0.062547
-0.070946
-0.079055
-0.085551
-0.089718
-0.091592
-0.091929
-0.091776
-0.091755
-0.091632
-0.090496
-0.08745
-0.08215
-0.074997
-0.06699
-0.059403
-0.053426
-0.050024
-0.04979
-0.052744
-0.058053
-0.064099
-0.068836
-0.070171
-0.066288
-0.055905
-0.038255
-0.012946
0.019869
0.059186
0.103089
0.149055
0.194302
0.235838
0.270297
0.326291
0.344459
0.340788
0.31417
0.267301
0.184825
0.12443
0.061421
0.001584
-0.081996
-0.126906
-0.151574
-0.129971
-0.133024
-0.128934
-0.121112
-0.112453
-0.104887
-0.099051
-0.094366
-0.089726
-0.084447
-0.078746
-0.073466
-0.069531
-0.067588
-0.067855
-0.070025
-0.073358
-0.076971
-0.080087
-0.082127
-0.08289
-0.082697
-0.082198
-0.081849
-0.0815
-0.080415
-0.077683
-0.072615
-0.065107
-0.055907
-0.046582
-0.039074
-0.035153
-0.035883
-0.041297
-0.050219
-0.060406
-0.069285
-0.074952
-0.076767
-0.075263
-0.071626
-0.067213
-0.063178
-0.06006
-0.057708
-0.055718
-0.053749
-0.051487
-0.048653
-0.045245
-0.041639
-0.038322
-0.035513
-0.033133
-0.030959
-0.02869
-0.026119
-0.0234
-0.021056
-0.019619
-0.019303
-0.020096
-0.021845
-0.023984
-0.025481
-0.025367
-0.023247
-0.01937
-0.014437
-0.009415
-0.005249
-0.002404
-0.000567
0.00106
0.003149
0.005964
0.009371
0.012848
0.015527
0.016623
0.015986
0.014081
0.011457
0.008413
0.005155
0.002012
-0.000572
-0.002295
-0.003023
-0.002569
-0.000679
0.00265
0.007072
0.0121
0.017391
0.022791
0.028307
0.034122
0.040483
0.047377
0.054227
0.060098
0.064362
0.067032
0.06856
0.069555
0.07067
0.072524
0.07544
0.079223
0.083301
0.087121
0.090462
0.09345
0.09643
0.099869
0.104114
0.109129
0.11442
0.119168
0.122526
0.123967
0.123451
0.121451
0.118779
0.116203
0.114141
0.112656
0.111788
0.111678
0.112265
0.113039
0.113225
0.112209
0.109676
0.105469
0.099572
0.092215
0.08381
0.074781
0.065462
0.056061
0.046606
0.036822
0.026315
0.015185
0.004479
-0.004342
-0.010254
-0.012829
-0.011849
-0.007402
-0.000285
0.008012
0.015913
0.02216
0.025817
0.026294
0.02352
0.017848
0.009584
-0.000747
-0.012183
-0.023448
-0.033282
-0.040677
-0.045
-0.046119
-0.044361
-0.040332
-0.034927
-0.029463
-0.0254
-0.023815
-0.025136
-0.029113
-0.034823
-0.040787
-0.045361
-0.047342
-0.046432
-0.043214
-0.03879
-0.034364
-0.030963
-0.029263
-0.029471
-0.031371
-0.03445
-0.037952
-0.040969
-0.042672
-0.042579
-0.040657
-0.037178
-0.03262
-0.027748
-0.023529
-0.020804
-0.020053
-0.021239
-0.02366
-0.026012
-0.026949
-0.025715
-0.022338
-0.017404
-0.011964
-0.007423
-0.005066
-0.00549
-0.008473
-0.013145
-0.018259
-0.022492
-0.024971
-0.025683
-0.025237
-0.024276
-0.023238
-0.022479
-0.022259
-0.022541
-0.023119
-0.024007
-0.025466
-0.027672
-0.030541
-0.033813
-0.037065
-0.039564
-0.040409
-0.039009
-0.035375
-0.029982
-0.023573
-0.017157
-0.011924
-0.008901
-0.008671
-0.011239
-0.015967
-0.021745
-0.027284
-0.031502
-0.033942
-0.034896
-0.035123
-0.035517
-0.036856
-0.039452
-0.042903
-0.046362
-0.049101
-0.050717
-0.05099
-0.049853
-0.047582
-0.044809
-0.0422
-0.04015
-0.038804
-0.037998
-0.03697
-0.034454
-0.029551
-0.022348
-0.013692
-0.004756
0.003096
0.008578
0.011011
0.010583
0.007961
0.003812
-0.001337
-0.007124
-0.013427
-0.020239
-0.027186
-0.033211
-0.036842
-0.036783
-0.032487
-0.024508
-0.01444
-0.004433
0.00355
0.008284
0.009354
0.007033
0.00211
-0.004403
-0.011548
-0.018543
-0.024751
-0.02967
-0.032989
-0.034508
-0.034018
-0.031448
-0.027143
-0.02185
-0.016483
-0.01199
-0.009384
-0.009513
-0.012595
-0.018116
-0.025235
-0.033032
-0.040388
-0.046088
-0.049326
-0.049939
-0.048052
-0.043815
-0.037612
-0.030187
-0.022324
-0.014577
-0.007427
-0.001479
0.002537
0.003975
0.002459
-0.002102
-0.009684
-0.020084
-0.032632
-0.04616
-0.059305
-0.070696
-0.078973
-0.08279
-0.080897
-0.072138
-0.055392
-0.029588
0.005354
0.048624
0.098458
0.152261
0.206869
0.258934
0.305182
0.342576
0.368595
0.381483
0.410588
0.396872
0.366572
0.288688
0.23402
0.173294
0.111761
0.05492
-0.028224
-0.064176
-0.049701
-0.059717
-0.059957
-0.0534
-0.04318
-0.032033
-0.022009
-0.014451
-0.010102
-0.009297
-0.012061
-0.018027
-0.026366
-0.035925
-0.045389
-0.053415
-0.058939
-0.061534
-0.061456
-0.059289
-0.055566
-0.050663
-0.044946
-0.038679
-0.031778
-0.023887
-0.014952
-0.005481
0.003722
0.011738
0.017435
0.019627
0.017544
0.011368
0.002344
-0.007628
-0.016474
-0.02232
-0.023898
-0.020976
-0.014424
-0.005937
0.002349
0.008315
0.010488
0.008553
0.003439
-0.003089
-0.00918
-0.013497
-0.015277
-0.014216
-0.010537
-0.005113
0.000651
0.005267
0.007789
0.00811
0.006746
0.004506
0.002313
0.001106
0.00173
0.004791
0.010428
0.018064
0.026333
0.033466
0.038027
0.039456
0.038085
0.0348
0.030765
0.027202
0.025054
0.02477
0.026436
0.029956
0.035143
0.041758
0.049473
0.057742
0.065599
0.071635
0.07439
0.07304
0.067794
0.059849
0.051071
0.043615
0.039375
0.039278
0.042806
0.048216
0.053424
0.056991
0.058581
0.058875
0.059185
0.06083
0.064436
0.069569
0.075078
0.079865
0.083251
0.084858
0.08466
0.083282
0.082049
0.08242
0.085218
0.090419
0.097431
0.105262
0.112622
0.118231
0.121171
0.121018
0.117909
0.112721
0.107135
0.103187
0.102438
0.10528
0.110922
0.118072
0.125648
0.132931
0.139487
0.145176
0.150099
0.154332
0.157573
0.15905
0.157777
0.152949
0.144319
0.132499
0.118922
0.105354
0.093276
0.083557
0.07642
0.071582
0.068479
0.066483
0.064969
0.063257
0.060569
0.056223
0.049929
0.041846
0.032414
0.022279
0.012289
0.003239
-0.004539
-0.011198
-0.016968
-0.021923
-0.026222
-0.030106
-0.033441
-0.035597
-0.036
-0.034586
-0.03165
-0.027699
-0.023492
-0.019762
-0.01674
-0.014296
-0.012537
-0.012009
-0.013307
-0.016723
-0.022221
-0.029341
-0.037104
-0.044327
-0.050049
-0.053614
-0.05461
-0.053036
-0.04953
-0.045128
-0.040762
-0.037121
-0.034626
-0.033263
-0.03254
-0.031701
-0.02992
-0.026483
-0.021154
-0.014685
-0.008915
-0.006132
-0.008203
-0.015929
-0.028691
-0.044401
-0.059935
-0.072085
-0.078677
-0.07913
-0.074425
-0.066623
-0.058015
-0.050348
-0.044526
-0.040686
-0.038565
-0.037791
-0.037951
-0.038686
-0.039735
-0.040892
-0.041959
-0.04261
-0.042232
-0.040015
-0.035437
-0.028766
-0.020964
-0.01325
-0.006872
-0.003041
-0.002755
-0.006509
-0.014153
-0.024951
-0.037527
-0.049962
-0.060403
-0.067817
-0.072116
-0.073568
-0.072356
-0.068821
-0.063664
-0.057636
-0.051296
-0.045104
-0.039511
-0.034681
-0.03028
-0.025944
-0.021948
-0.019123
-0.018259
-0.019783
-0.023897
-0.030653
-0.039594
-0.049583
-0.059216
-0.067306
-0.073075
-0.07625
-0.077071
-0.076155
-0.07414
-0.071189
-0.06694
-0.061015
-0.053559
-0.045329
-0.037413
-0.030903
-0.026705
-0.02531
-0.026614
-0.030039
-0.03484
-0.040329
-0.045864
-0.050725
-0.05413
-0.055526
-0.054829
-0.052314
-0.048287
-0.043025
-0.037142
-0.031785
-0.028179
-0.02687
-0.027429
-0.028714
-0.029317
-0.028007
-0.024223
-0.018446
-0.012067
-0.006777
-0.004057
-0.005062
-0.01045
-0.019932
-0.032049
-0.044633
-0.055684
-0.063806
-0.068158
-0.068517
-0.065419
-0.060022
-0.053708
-0.047773
-0.043431
-0.041726
-0.043031
-0.046722
-0.051506
-0.056084
-0.059668
-0.06225
-0.064546
-0.067587
-0.07211
-0.078045
-0.084424
-0.089755
-0.092544
-0.091585
-0.086169
-0.076608
-0.064658
-0.053095
-0.044666
-0.04115
-0.043052
-0.049803
-0.060023
-0.071717
-0.08268
-0.091088
-0.095923
-0.096993
-0.094733
-0.089894
-0.082945
-0.073486
-0.060152
-0.041065
-0.014498
0.020686
0.064667
0.116155
0.172103
0.22821
0.27993
0.323161
0.38786
0.407151
0.407856
0.38977
0.353668
0.275717
0.219771
0.159119
0.098971
0.044136
-0.034813
-0.067386
-0.055544
-0.064961
-0.0659
-0.061681
-0.055451
-0.04973
-0.045997
-0.044666
-0.045486
-0.047995
-0.051797
-0.056652
-0.06249
-0.069189
-0.076138
-0.082104
-0.085555
-0.085239
-0.080753
-0.072733
-0.06276
-0.053065
-0.045974
-0.043293
-0.045808
-0.052916
-0.062704
-0.072518
-0.079705
-0.082376
-0.080016
-0.073645
-0.065208
-0.056658
-0.049571
-0.045183
-0.044193
-0.046422
-0.050713
-0.055332
-0.058644
-0.059467
-0.057323
-0.052741
-0.047147
-0.042202
-0.039051
-0.038054
-0.038945
-0.040928
-0.042708
-0.042846
-0.040392
-0.035441
-0.029106
-0.02299
-0.018533
-0.016367
-0.015896
-0.015604
-0.014
-0.010557
-0.005916
-0.001412
0.001504
0.001675
-0.001448
-0.007578
-0.01561
-0.023941
-0.030912
-0.035254
-0.036428
-0.034655
-0.030551
-0.024678
-0.017416
-0.009153
-0.000493
0.007776
0.01477
0.019539
0.021085
0.018614
0.011924
0.001715
-0.01025
-0.021317
-0.028586
-0.029867
-0.024239
-0.012004
0.005462
0.025788
0.046114
0.063875
0.077319
0.085563
0.088499
0.086715
0.081204
0.073058
0.063471
0.053871
0.045808
0.040699
0.039611
0.042928
0.049988
0.059168
0.068545
0.076545
0.082158
0.085014
0.085543
0.084835
0.084043
0.083926
0.084822
0.086615
0.088619
0.089888
0.090036
0.089798
0.090766
0.094514
0.101733
0.111864
0.123172
0.133119
0.139109
0.139374
0.13345
0.122144
0.107272
0.091306
0.076797
0.065734
0.059121
0.056906
0.058191
0.061652
0.065961
0.069988
0.072677
0.072973
0.070066
0.063696
0.054235
0.042595
0.030123
0.018225
0.007911
-0.000215
-0.005662
-0.008132
-0.007951
-0.006363
-0.005185
-0.006019
-0.009657
-0.015852
-0.023419
-0.030647
-0.035778
-0.037484
-0.035236
-0.029451
-0.021424
-0.013039
-0.006223
-0.002289
-0.001544
-0.003455
-0.007099
-0.01147
-0.015767
-0.019733
-0.023789
-0.028754
-0.03525
-0.043341
-0.052574
-0.061998
-0.070185
-0.075658
-0.077516
-0.075789
-0.071316
-0.065433
-0.059602
-0.055038
-0.052388
-0.051451
-0.051352
-0.051318
-0.051204
-0.051149
-0.05106
-0.050596
-0.049431
-0.047212
-0.043437
-0.037729
-0.03033
-0.022151
-0.014379
-0.008183
-0.004494
-0.003651
-0.005102
-0.007717
-0.010466
-0.012895
-0.015235
-0.018224
-0.022555
-0.028292
-0.034724
-0.040661
-0.044922
-0.046686
-0.045755
-0.042745
-0.038909
-0.035543
-0.033445
-0.032707
-0.032842
-0.033103
-0.032884
-0.0321
-0.031225
-0.030959
-0.031917
-0.034341
-0.037869
-0.041621
-0.044762
-0.047102
-0.049039
-0.050962
-0.052899
-0.054516
-0.055159
-0.05408
-0.051002
-0.046637
-0.04243
-0.039692
-0.039037
-0.040396
-0.043088
-0.045837
-0.047088
-0.045642
-0.041244
-0.034755
-0.027817
-0.022301
-0.019708
-0.020466
-0.023646
-0.027573
-0.030788
-0.032414
-0.032015
-0.029684
-0.026257
-0.023069
-0.021299
-0.021593
-0.024011
-0.027921
-0.031965
-0.034536
-0.034508
-0.031632
-0.026467
-0.020206
-0.014549
-0.011399
-0.012331
-0.017942
-0.027453
-0.038945
-0.050035
-0.058529
-0.062893
-0.062551
-0.05784
-0.049687
-0.039403
-0.028552
-0.018581
-0.0103
-0.003844
0.000931
0.004143
0.005904
0.006343
0.00555
0.003721
0.001291
-0.001491
-0.004996
-0.009762
-0.01575
-0.022363
-0.028924
-0.034889
-0.039879
-0.043862
-0.047103
-0.049754
-0.051695
-0.052776
-0.052924
-0.052045
-0.050091
-0.047386
-0.044696
-0.042834
-0.042292
-0.043213
-0.045326
-0.047875
-0.049928
-0.050903
-0.050765
-0.049653
-0.047586
-0.044666
-0.041326
-0.038213
-0.035975
-0.035119
-0.03598
-0.03868
-0.043033
-0.048371
-0.053393
-0.056309
-0.05522
-0.048495
-0.034989
-0.014013
0.014881
0.052051
0.097472
0.15001
0.206875
0.263846
0.316197
0.393291
0.468396
0.447924
0.440685
0.414727
0.373201
0.315197
0.245765
0.142452
0.06981
-0.070839
-0.136688
-0.135314
-0.145323
-0.113431
-0.106933
-0.093693
-0.07882
-0.065815
-0.056118
-0.049759
-0.045915
-0.043111
-0.039653
-0.034499
-0.027857
-0.020946
-0.015321
-0.012401
-0.013142
-0.01765
-0.024953
-0.033375
-0.04128
-0.047493
-0.051392
-0.052925
-0.052552
-0.051026
-0.049114
-0.047456
-0.046511
-0.046381
-0.046781
-0.047173
-0.046888
-0.045266
-0.041842
-0.036611
-0.03026
-0.02401
-0.019226
-0.017033
-0.018019
-0.022061
-0.028342
-0.035687
-0.043104
-0.04996
-0.055698
-0.059638
-0.061212
-0.060381
-0.057618
-0.053497
-0.048568
-0.043522
-0.039019
-0.035241
-0.031735
-0.027752
-0.02269
-0.01642
-0.009556
-0.003435
0.000312
0.000408
-0.00346
-0.010317
-0.018177
-0.024771
-0.02835
-0.028125
-0.024328
-0.018043
-0.010771
-0.003913
0.00151
0.004799
0.005617
0.004282
0.001882
-0.000157
-0.000616
0.001219
0.005218
0.010345
0.015152
0.018513
0.019845
0.018947
0.016104
0.01238
0.009239
0.007723
0.008092
0.009989
0.012751
0.015658
0.01834
0.021164
0.024953
0.03023
0.036872
0.044304
0.051772
0.058525
0.064085
0.068408
0.071538
0.073335
0.073839
0.07363
0.073514
0.074045
0.075533
0.078248
0.082163
0.086613
0.09059
0.09328
0.094139
0.092914
0.090016
0.086739
0.084765
0.085217
0.088113
0.092587
0.097322
0.100902
0.10226
0.101039
0.097523
0.092257
0.085847
0.078882
0.071685
0.064156
0.056048
0.047422
0.038881
0.031485
0.026455
0.024895
0.027451
0.033933
0.043182
0.053382
0.062519
0.068619
0.070011
0.065873
0.056566
0.043394
0.028125
0.012702
-0.000889
-0.011106
-0.017551
-0.021074
-0.023096
-0.024842
-0.026998
-0.02959
-0.031927
-0.032985
-0.032187
-0.029691
-0.026061
-0.021981
-0.018254
-0.015672
-0.01469
-0.015177
-0.016457
-0.017663
-0.018252
-0.018449
-0.019248
-0.021768
-0.026556
-0.03353
-0.042241
-0.051875
-0.061209
-0.068833
-0.073541
-0.074638
-0.07211
-0.066782
-0.060236
-0.054219
-0.049942
-0.047908
-0.048093
-0.0499
-0.05207
-0.053076
-0.051823
-0.047975
-0.041902
-0.03456
-0.027193
-0.0208
-0.015904
-0.012699
-0.011205
-0.01125
-0.012529
-0.01483
-0.018104
-0.02221
-0.026852
-0.031675
-0.036109
-0.039294
-0.040528
-0.039685
-0.036979
-0.03265
-0.027183
-0.021629
-0.01732
-0.015262
-0.015967
-0.019627
-0.026015
-0.034171
-0.042479
-0.049207
-0.053024
-0.053136
-0.049359
-0.042295
-0.033264
-0.023884
-0.015535
-0.009049
-0.004785
-0.002793
-0.002809
-0.004352
-0.007145
-0.01133
-0.017164
-0.024597
-0.033141
-0.041877
-0.049488
-0.054493
-0.055768
-0.052989
-0.04664
-0.037839
-0.028212
-0.019581
-0.013285
-0.009673
-0.008304
-0.008468
-0.009443
-0.010724
-0.012322
-0.014666
-0.018066
-0.022308
-0.026837
-0.031054
-0.034364
-0.036245
-0.036483
-0.035224
-0.032734
-0.029116
-0.024296
-0.018291
-0.011423
-0.004462
0.001419
0.004924
0.00506
0.001502
-0.005159
-0.013371
-0.020974
-0.025928
-0.026949
-0.023825
-0.01754
-0.010064
-0.003543
0.000551
0.001605
-0.00048
-0.005537
-0.01302
-0.021977
-0.031392
-0.040393
-0.048141
-0.053771
-0.056468
-0.05561
-0.050953
-0.04301
-0.033392
-0.024462
-0.018351
-0.016151
-0.017703
-0.02181
-0.026579
-0.029962
-0.030519
-0.027961
-0.023162
-0.017808
-0.013845
-0.012801
-0.015306
-0.021066
-0.029234
-0.038896
-0.049295
-0.059821
-0.069865
-0.078653
-0.085221
-0.088588
-0.087941
-0.082747
-0.072772
-0.058035
-0.038717
-0.015
0.013004
0.045374
0.082442
0.124385
0.170422
0.218164
0.263698
0.302315
0.367105
0.434426
0.429494
0.352374
0.272905
0.223159
0.167414
0.111367
0.059908
0.016012
-0.019249
-0.045966
-0.064861
-0.077058
-0.083623
-0.085073
-0.081607
-0.07385
-0.063175
-0.051393
-0.04032
-0.031544
-0.026083
-0.024032
-0.024637
-0.026759
-0.029319
-0.031525
-0.033012
-0.034028
-0.035336
-0.037649
-0.041026
-0.04469
-0.047435
-0.048368
-0.047438
-0.045433
-0.043459
-0.042342
-0.042359
-0.043341
-0.044829
-0.046157
-0.047368
-0.048024
-0.0476
-0.045676
-0.042134
-0.037129
-0.030784
-0.023162
-0.014816
-0.007136
-0.002031
-0.001179
-0.005386
-0.014271
-0.02623
-0.03889
-0.049897
-0.057394
-0.060234
-0.058239
-0.052324
-0.044256
-0.036017
-0.029133
-0.024431
-0.022086
-0.021855
-0.023359
-0.026052
-0.028925
-0.0306
-0.029998
-0.026884
-0.021629
-0.014581
-0.006055
0.003419
0.01316
0.022626
0.031437
0.039119
0.045009
0.048482
0.049025
0.046136
0.039498
0.029426
0.017118
0.004291
-0.007432
-0.016742
-0.022517
-0.023772
-0.019971
-0.011457
0.000612
0.014667
0.028957
0.041662
0.051197
0.056718
0.05826
0.056382
0.051954
0.046241
0.040788
0.036937
0.035396
0.036294
0.039404
0.044089
0.049438
0.054559
0.058657
0.061108
0.061826
0.061569
0.061622
0.063019
0.066075
0.07043
0.075264
0.079592
0.082628
0.084226
0.085119
0.086533
0.089443
0.094158
0.100311
0.106927
0.112545
0.115747
0.115937
0.11375
0.110692
0.108453
0.108372
0.111164
0.116471
0.122619
0.12736
0.129038
0.127073
0.121768
0.114081
0.105396
0.097035
0.089729
0.083476
0.077731
0.071755
0.065032
0.05762
0.050235
0.043796
0.038688
0.03457
0.030772
0.026486
0.020806
0.01321
0.004135
-0.005239
-0.013717
-0.020502
-0.025223
-0.027982
-0.029376
-0.030225
-0.030991
-0.031513
-0.031444
-0.030689
-0.029252
-0.026963
-0.023698
-0.01983
-0.016208
-0.013627
-0.01244
-0.0126
-0.013882
-0.015985
-0.018382
-0.020329
-0.021064
-0.019986
-0.016788
-0.011617
-0.005106
0.00169
0.0075
0.011159
0.011808
0.008837
0.001929
-0.008458
-0.02069
-0.03243
-0.041683
-0.047355
-0.049226
-0.047858
-0.044573
-0.041119
-0.039007
-0.039101
-0.041548
-0.045733
-0.050256
-0.053402
-0.053967
-0.051578
-0.04636
-0.038666
-0.029213
-0.019177
-0.009942
-0.002812
0.00107
0.000826
-0.003734
-0.011748
-0.021406
-0.03044
-0.036649
-0.038368
-0.034999
-0.027294
-0.017076
-0.006523
0.002546
0.008969
0.012198
0.012211
0.009514
0.005049
-0.000201
-0.005738
-0.011561
-0.017609
-0.02341
-0.028321
-0.031932
-0.034136
-0.035028
-0.034973
-0.034692
-0.035042
-0.036555
-0.039153
-0.042223
-0.044834
-0.04583
-0.044104
-0.039128
-0.031372
-0.022204
-0.013371
-0.006474
-0.002624
-0.002269
-0.005032
-0.00977
-0.015043
-0.019761
-0.023443
-0.025996
-0.027422
-0.027701
-0.026953
-0.025642
-0.024457
-0.023943
-0.024275
-0.025178
-0.025931
-0.025511
-0.023011
-0.018157
-0.011398
-0.003524
0.004615
0.011989
0.017231
0.019005
0.016693
0.010569
0.001465
-0.00949
-0.020898
-0.031189
-0.038966
-0.043309
-0.043766
-0.040481
-0.034634
-0.028428
-0.024182
-0.023217
-0.025417
-0.029558
-0.033843
-0.036394
-0.035848
-0.031861
-0.025248
-0.017744
-0.011541
-0.008749
-0.010837
-0.018114
-0.029548
-0.043088
-0.056368
-0.067325
-0.074442
-0.076642
-0.073361
-0.064827
-0.05225
-0.037742
-0.023965
-0.013626
-0.008851
-0.010652
-0.018713
-0.031443
-0.046181
-0.05953
-0.067911
-0.0682
-0.058177
-0.036752
-0.004043
0.038728
0.089349
0.144511
0.199793
0.250232
0.322609
0.357339
0.402574
0.337884
0.326594
0.303187
0.269219
0.226512
0.177068
0.123139
0.067313
0.012547
-0.037826
-0.080338
-0.112054
-0.131411
-0.138733
-0.136082
-0.126447
-0.112795
-0.097599
-0.082864
-0.070194
-0.060546
-0.054029
-0.050162
-0.048285
-0.047634
-0.047223
-0.045916
-0.042707
-0.036951
-0.02859
-0.018396
-0.008063
0.000259
0.004824
0.005075
0.001674
-0.00412
-0.011054
-0.01815
-0.024777
-0.030741
-0.036162
-0.041079
-0.045303
-0.048547
-0.050549
-0.051117
-0.0503
-0.048572
-0.046706
-0.045248
-0.044284
-0.043747
-0.043689
-0.044229
-0.045335
-0.046725
-0.047905
-0.048244
-0.047268
-0.045118
-0.042626
-0.040834
-0.040417
-0.041465
-0.043652
-0.046323
-0.04837
-0.048358
-0.045149
-0.038507
-0.029157
-0.018487
-0.008229
-0.000017
0.005115
0.006869
0.005331
0.00068
-0.006555
-0.015044
-0.022815
-0.028012
-0.02949
-0.026869
-0.020494
-0.01147
-0.001436
0.007935
0.015298
0.019803
0.021267
0.020344
0.018333
0.016622
0.016181
0.017356
0.01986
0.022812
0.025006
0.025475
0.023998
0.021177
0.018105
0.015824
0.014869
0.015143
0.016124
0.017215
0.017981
0.018291
0.018288
0.018295
0.01884
0.020695
0.024633
0.030964
0.03922
0.048361
0.057308
0.065218
0.071464
0.075621
0.07771
0.078309
0.078268
0.078474
0.079824
0.083051
0.088363
0.095312
0.103128
0.111069
0.118266
0.123582
0.125995
0.125003
0.120633
0.113323
0.104078
0.094486
0.086147
0.080022
0.076314
0.074661
0.074294
0.074251
0.073795
0.072718
0.071121
0.069096
0.066676
0.063872
0.060423
0.055639
0.048722
0.039322
0.027759
0.01474
0.001159
-0.011872
-0.023232
-0.032139
-0.038225
-0.041381
-0.041825
-0.040215
-0.037501
-0.034538
-0.031925
-0.030151
-0.029662
-0.030546
-0.032254
-0.03394
-0.035012
-0.035348
-0.035362
-0.035975
-0.038182
-0.042466
-0.048542
-0.055443
-0.061831
-0.066376
-0.06809
-0.066599
-0.062223
-0.055777
-0.048278
-0.040854
-0.034612
-0.030309
-0.028226
-0.028388
-0.030736
-0.035035
-0.040752
-0.047104
-0.053279
-0.058703
-0.063126
-0.066475
-0.068696
-0.069707
-0.069343
-0.06729
-0.063067
-0.056292
-0.047178
-0.036736
-0.026509
-0.01819
-0.013341
-0.013003
-0.017246
-0.024942
-0.033983
-0.042109
-0.048251
-0.051775
-0.052669
-0.051241
-0.047947
-0.043159
-0.036974
-0.029407
-0.020843
-0.01222
-0.004786
0.000326
0.002358
0.001102
-0.00281
-0.007913
-0.012567
-0.015747
-0.017254
-0.017359
-0.016512
-0.015359
-0.014568
-0.014437
-0.014673
-0.014527
-0.013099
-0.00962
-0.003781
0.0038
0.01158
0.017817
0.02125
0.021168
0.017377
0.010509
0.002193
-0.005472
-0.010691
-0.012469
-0.010792
-0.006567
-0.001281
0.003594
0.007264
0.009713
0.011238
0.012187
0.012979
0.013955
0.015087
0.015943
0.015927
0.01452
0.011406
0.006677
0.001012
-0.004526
-0.008943
-0.011652
-0.012532
-0.011942
-0.010768
-0.010266
-0.011461
-0.014404
-0.017941
-0.020049
-0.018534
-0.011832
0.000247
0.017201
0.036741
0.055772
0.071255
0.080977
0.084091
0.081382
0.075126
0.068499
0.063472
0.06088
0.060213
0.060198
0.059423
0.056849
0.05212
0.045665
0.038584
0.032305
0.028179
0.027058
0.028958
0.032993
0.037676
0.041451
0.043229
0.042699
0.040322
0.037012
0.033767
0.031427
0.030516
0.031012
0.032186
0.032908
0.032309
0.030149
0.026634
0.022173
0.017404
0.013188
0.01028
0.00907
0.009707
0.012288
0.016808
0.022858
0.029603
0.036128
0.041722
0.045838
0.048158
0.048839
0.048493
0.047775
0.046924
0.045794
0.044297
0.042865
0.042614
0.04524
0.052815
0.067415
0.09056
0.122697
0.162963
0.209289
0.258751
0.307981
0.353389
0.391345
0.418609
0.468841
0.470908
0.451685
0.386042
0.342535
0.289799
0.23238
0.174965
0.121914
0.076888
0.012233
0.019182
0.007163
0.005078
0.010866
0.021707
0.034592
0.047093
0.057699
0.065554
0.070172
0.071368
0.069288
0.064347
0.057108
0.048276
0.038882
0.030332
0.024116
0.02142
0.022842
0.028196
0.036338
0.045196
0.052285
0.055521
0.053815
0.047347
0.037518
0.026479
0.016451
0.009059
0.004937
0.003736
0.004479
0.006151
0.008258
0.010975
0.014956
0.021001
0.029749
0.041275
0.054614
0.067769
0.078464
0.085014
0.086754
0.084065
0.078304
0.071557
0.065876
0.062356
0.060926
0.060914
0.061541
0.06192
0.06119
0.059168
0.056622
0.054547
0.053261
0.052418
0.051605
0.050467
0.048558
0.045639
0.042222
0.039535
0.038892
0.041133
0.046521
0.054722
0.064674
0.074633
0.082692
0.087539
0.088831
0.087066
0.08326
0.078692
0.074588
0.071658
0.069787
0.068245
0.066216
0.063258
0.059359
0.054975
0.051123
0.049192
0.050364
0.054967
0.062425
0.07176
0.081962
0.091977
0.100733
0.107321
0.111169
0.112029
0.109961
0.105464
0.099423
0.092932
0.087107
0.082932
0.081251
0.082684
0.087261
0.094113
0.101599
0.107973
0.112036
0.113153
0.111001
0.105641
0.097726
0.088415
0.079051
0.071075
0.066015
0.065006
0.068173
0.074653
0.083128
0.092199
0.100466
0.106618
0.109702
0.109386
0.10607
0.100831
0.095164
0.090514
0.08769
0.086445
0.085574
0.083588
0.079452
0.072819
0.063823
0.052864
0.04059
0.02784
0.015448
0.004185
-0.005258
-0.012447
-0.017275
-0.019637
-0.019197
-0.015796
-0.010142
-0.003886
0.001097
0.003384
0.002214
-0.002512
-0.010317
-0.020523
-0.032647
-0.046353
-0.061169
-0.076493
-0.091747
-0.106207
-0.118761
-0.128021
-0.132825
-0.132718
-0.128093
-0.120126
-0.110599
-0.101595
-0.095151
-0.092936
-0.095723
-0.102912
-0.112597
-0.122243
-0.12943
-0.132423
-0.13068
-0.125039
-0.117266
-0.109304
-0.102753
-0.09859
-0.096991
-0.097363
-0.098867
-0.100946
-0.103262
-0.105493
-0.107457
-0.109353
-0.1117
-0.114941
-0.119159
-0.12412
-0.129408
-0.134584
-0.139384
-0.14381
-0.148078
-0.152403
-0.156841
-0.161261
-0.165458
-0.169147
-0.17188
-0.173121
-0.172534
-0.170262
-0.166884
-0.163123
-0.159721
-0.157455
-0.156992
-0.158627
-0.162205
-0.167419
-0.174094
-0.181956
-0.190377
-0.198571
-0.205854
-0.211757
-0.216032
-0.218553
-0.219132
-0.217387
-0.212878
-0.205612
-0.196274
-0.185859
-0.175231
-0.165097
-0.156297
-0.149966
-0.14742
-0.149817
-0.157648
-0.170341
-0.186268
-0.203114
-0.218352
-0.229667
-0.235398
-0.235023
-0.229483
-0.220969
-0.212133
-0.205296
-0.202043
-0.20301
-0.207958
-0.216171
-0.226735
-0.238482
-0.249828
-0.259106
-0.265387
-0.268739
-0.269745
-0.269168
-0.267887
-0.266648
-0.265689
-0.264655
-0.262954
-0.26008
-0.255762
-0.250224
-0.244445
-0.240021
-0.238509
-0.240609
-0.24581
-0.252604
-0.259073
-0.263658
-0.265636
-0.264861
-0.260981
-0.254086
-0.245949
-0.237505
-0.229501
-0.222416
-0.216694
-0.212749
-0.210609
-0.209833
-0.209878
-0.210267
-0.210371
-0.209455
-0.207239
-0.204296
-0.201765
-0.200817
-0.202346
-0.206762
-0.213829
-0.222576
-0.231499
-0.238997
-0.243751
-0.244941
-0.242344
-0.236423
-0.228524
-0.220822
-0.215709
-0.214933
-0.218967
-0.226867
-0.23656
-0.245372
-0.250773
-0.251131
-0.246116
-0.236721
-0.224969
-0.213264
-0.203755
-0.197677
-0.194944
-0.194482
-0.195041
-0.195841
-0.19682
-0.198481
-0.201665
-0.207162
-0.214958
-0.22375
-0.231136
-0.234128
-0.22961
-0.214922
-0.188652
-0.151085
-0.103841
-0.049299
0.009583
0.069363
0.126526
0.177989
0.22111
0.253357
0.302884
0.310866
0.301043
0.27166
0.223031
0.138674
0.078664
0.018169
-0.037457
-0.119048
-0.151824
-0.139406
-0.149237
-0.150115
-0.145078
-0.136994
-0.128185
-0.120177
-0.11368
-0.108832
-0.105505
-0.103419
-0.102199
-0.101534
-0.101309
-0.101591
-0.10243
-0.103592
-0.105116
-0.106187
-0.105421
-0.102059
-0.095803
-0.087394
-0.078725
-0.072193
-0.069762
-0.072344
-0.079575
-0.089778
-0.100262
-0.108172
-0.111559
-0.109909
-0.103978
-0.095602
-0.087402
-0.081725
-0.079345
-0.079297
-0.079855
-0.07954
-0.077516
-0.073697
-0.068834
-0.06424
-0.061015
-0.059444
-0.059009
-0.058727
-0.057508
-0.054514
-0.049679
-0.04402
-0.039184
-0.036393
-0.03562
-0.035662
-0.035002
-0.032654
-0.028406
-0.022784
-0.017028
-0.01271
-0.010938
-0.011894
-0.014937
-0.018869
-0.022233
-0.023808
-0.023054
-0.020017
-0.014955
-0.008193
-0.000127
0.008792
0.017835
0.025775
0.031165
0.03306
0.031446
0.027145
0.021578
0.016646
0.014253
0.015395
0.019621
0.025484
0.031336
0.035882
0.038612
0.040127
0.041922
0.045635
0.052323
0.062139
0.074296
0.087268
0.099219
0.108452
0.11387
0.115358
0.113766
0.110454
0.106786
0.103817
0.10217
0.102048
0.103401
0.106192
0.110488
0.116264
0.123159
0.130486
0.1375
0.143728
0.149172
0.154234
0.159312
0.164396
0.169054
0.172769
0.175098
0.175679
0.174463
0.171907
0.168706
0.165438
0.16266
0.161065
0.161141
0.162734
0.165197
0.167979
0.170893
0.173837
0.17641
0.178005
0.178156
0.176789
0.174295
0.17143
0.168894
0.166953
0.165364
0.163555
0.160903
0.157103
0.152313
0.146985
0.141661
0.136923
0.133261
0.130738
0.128757
0.126403
0.12306
0.118725
0.113901
0.109349
0.105884
0.104101
0.104147
0.105757
0.108403
0.111357
0.113851
0.115299
0.115545
0.114982
0.11435
0.114366
0.115452
0.11757
0.120245
0.12272
0.124147
0.123929
0.121975
0.118507
0.113793
0.108247
0.102597
0.0977
0.094259
0.092835
0.093923
0.097721
0.103869
0.111467
0.119346
0.126349
0.131438
0.133931
0.133993
0.132739
0.131643
0.131832
0.13371
0.136949
0.140632
0.143511
0.144469
0.142024
0.137784
0.132855
0.128524
0.126015
0.126213
0.129253
0.134404
0.140422
0.145938
0.149725
0.150967
0.14959
0.146334
0.142342
0.138608
0.135639
0.133337
0.131249
0.129199
0.127657
0.12744
0.129149
0.132875
0.138134
0.14382
0.148426
0.150691
0.150178
0.14733
0.143153
0.138923
0.135902
0.134869
0.135851
0.138392
0.14193
0.14583
0.149321
0.15153
0.151532
0.148518
0.142221
0.133217
0.122795
0.112778
0.105466
0.10314
0.106923
0.115926
0.127606
0.138899
0.147089
0.150235
0.147691
0.140454
0.130657
0.120528
0.111848
0.10595
0.103548
0.10429
0.107035
0.110898
0.115814
0.121958
0.129036
0.136242
0.142616
0.147113
0.148736
0.146971
0.142102
0.135064
0.127126
0.119674
0.113966
0.110787
0.110231
0.111846
0.11499
0.119066
0.123562
0.128134
0.13272
0.137403
0.142179
0.147002
0.151993
0.157329
0.162811
0.167635
0.170611
0.170581
0.166802
0.159204
0.148549
0.136281
0.123889
0.112385
0.102327
0.093999
0.087397
0.082369
0.078977
0.077662
0.079013
0.083441
0.090878
0.100461
0.110462
0.118723
0.123433
0.123768
0.119992
0.113045
0.104089
0.094146
0.083845
0.073487
0.063396
0.054133
0.046395
0.040731
0.037447
0.03658
0.037722
0.039867
0.04163
0.041801
0.039861
0.035988
0.030777
0.025071
0.019873
0.016331
0.015884
0.020352
0.03167
0.051324
0.079914
0.117099
0.161745
0.212036
0.265444
0.318739
0.368315
0.410766
0.443185
0.494862
0.505669
0.497143
0.467146
0.415752
0.321966
0.253698
0.18307
0.116644
-0.012497
-0.063772
-0.049245
-0.027506
-0.030255
-0.024638
-0.014356
-0.002589
0.008399
0.017388
0.023924
0.0278
0.028816
0.027011
0.022811
0.01669
0.008834
-0.000759
-0.011895
-0.023973
-0.036063
-0.047092
-0.055979
-0.061949
-0.064896
-0.06551
-0.065034
-0.064778
-0.065517
-0.067104
-0.068456
-0.068094
-0.064921
-0.05889
-0.051252
-0.044057
-0.039123
-0.037341
-0.038547
-0.041661
-0.045027
-0.047009
-0.046705
-0.044181
-0.040076
-0.035213
-0.030452
-0.026422
-0.023302
-0.02093
-0.019173
-0.018133
-0.018015
-0.018984
-0.021037
-0.023779
-0.026352
-0.027758
-0.027415
-0.025542
-0.022966
-0.020545
-0.018773
-0.017802
-0.017687
-0.018396
-0.019605
-0.02077
-0.021513
-0.021739
-0.021532
-0.02108
-0.0206
-0.020146
-0.019624
-0.019228
-0.019589
-0.021352
-0.024778
-0.029761
-0.035908
-0.042555
-0.04889
-0.054193
-0.057908
-0.059428
-0.058116
-0.053652
-0.046142
-0.035981
-0.023948
-0.01151
-0.000689
0.00669
0.009818
0.009278
0.006884
0.005076
0.006094
0.011228
0.020301
0.031692
0.042911
0.051477
0.055731
0.05536
0.051438
0.045874
0.040416
0.035921
0.032452
0.029856
0.02804
0.027004
0.027073
0.028975
0.033284
0.039846
0.047863
0.056209
0.063506
0.068317
0.069802
0.068179
0.064371
0.059308
0.053603
0.047627
0.041587
0.035555
0.029692
0.024423
0.020231
0.017439
0.016229
0.016598
0.018363
0.021234
0.024778
0.028245
0.030527
0.030525
0.027594
0.021628
0.013008
0.002672
-0.007947
-0.017215
-0.023808
-0.027247
-0.028023
-0.027366
-0.026826
-0.027872
-0.031615
-0.038616
-0.048791
-0.061512
-0.075699
-0.089873
-0.102406
-0.112012
-0.118154
-0.121055
-0.121353
-0.119909
-0.117888
-0.116743
-0.117796
-0.121633
-0.127824
-0.135162
-0.142116
-0.147176
-0.14914
-0.147424
-0.142198
-0.134182
-0.124414
-0.114187
-0.104942
-0.097966
-0.094102
-0.093756
-0.096912
-0.102989
-0.110917
-0.11943
-0.127143
-0.132556
-0.134488
-0.132731
-0.128187
-0.122471
-0.117558
-0.115523
-0.117829
-0.124502
-0.134126
-0.144538
-0.15334
-0.158152
-0.157161
-0.149904
-0.137639
-0.12295
-0.108947
-0.098461
-0.093343
-0.094136
-0.100209
-0.11007
-0.121664
-0.132917
-0.142397
-0.149616
-0.154842
-0.158737
-0.16203
-0.165064
-0.167558
-0.16902
-0.169249
-0.168341
-0.166379
-0.163304
-0.159081
-0.15381
-0.14761
-0.140678
-0.133431
-0.126448
-0.120354
-0.115755
-0.113131
-0.112615
-0.113819
-0.115923
-0.118066
-0.11986
-0.121728
-0.124678
-0.129616
-0.136663
-0.1449
-0.152725
-0.15867
-0.162141
-0.163673
-0.164582
-0.166193
-0.169155
-0.173144
-0.176898
-0.178385
-0.175302
-0.166142
-0.151288
-0.133245
-0.115736
-0.102432
-0.095904
-0.096899
-0.103995
-0.114144
-0.124066
-0.131492
-0.135482
-0.13629
-0.135353
-0.134849
-0.136623
-0.141315
-0.148352
-0.156319
-0.16321
-0.166791
-0.165382
-0.158581
-0.147335
-0.133491
-0.119216
-0.106564
-0.097264
-0.092483
-0.092645
-0.097453
-0.105962
-0.116752
-0.128259
-0.139026
-0.147887
-0.154119
-0.157532
-0.158446
-0.157558
-0.155715
-0.153593
-0.151427
-0.149039
-0.146191
-0.142941
-0.139749
-0.137232
-0.13571
-0.134906
-0.134079
-0.132428
-0.12952
-0.125493
-0.120966
-0.116887
-0.114436
-0.114726
-0.118291
-0.124841
-0.133301
-0.142108
-0.149684
-0.154933
-0.157574
-0.158077
-0.157088
-0.154886
-0.151456
-0.146945
-0.141836
-0.136611
-0.131196
-0.12468
-0.115455
-0.101575
-0.081188
-0.053112
-0.017357
0.024893
0.071838
0.121375
0.170833
0.216925
0.256236
0.285661
0.302409
0.375466
0.37722
0.332736
0.240025
0.142956
0.074319
0.005852
-0.089977
-0.176138
-0.178009
-0.167377
-0.178392
-0.178665
-0.170454
-0.156615
-0.140304
-0.124308
-0.110626
-0.100399
-0.093911
-0.09052
-0.088755
-0.086772
-0.083086
-0.07712
-0.069412
-0.061407
-0.054953
-0.05169
-0.052549
-0.057551
-0.066006
-0.076852
-0.088767
-0.100042
-0.108654
-0.112923
-0.112182
-0.106879
-0.098406
-0.088931
-0.08094
-0.076457
-0.076352
-0.080184
-0.086507
-0.093283
-0.098365
-0.100131
-0.097982
-0.092313
-0.084059
-0.074403
-0.0646
-0.055472
-0.047117
-0.039359
-0.032371
-0.02665
-0.0226
-0.020435
-0.020376
-0.022557
-0.026761
-0.032447
-0.039013
-0.04587
-0.052159
-0.056767
-0.058903
-0.058316
-0.05493
-0.048694
-0.040016
-0.030155
-0.020998
-0.014385
-0.011511
-0.012615
-0.01694
-0.022967
-0.02896
-0.033528
-0.035839
-0.035589
-0.032907
-0.028142
-0.021656
-0.013833
-0.005193
0.003592
0.011754
0.018334
0.022272
0.022835
0.020114
0.015198
0.009847
0.005953
0.005243
0.008898
0.017001
0.02839
0.041075
0.052949
0.062537
0.069484
0.074561
0.079218
0.084968
0.092828
0.102942
0.114481
0.12588
0.135238
0.140822
0.141658
0.138045
0.131671
0.125007
0.120206
0.118352
0.119478
0.122833
0.127189
0.131294
0.134345
0.136076
0.136586
0.136326
0.136093
0.136613
0.13808
0.140223
0.142725
0.145451
0.148324
0.151189
0.15386
0.156163
0.157854
0.158646
0.158579
0.158299
0.158727
0.160519
0.163773
0.16795
0.171956
0.174287
0.173364
0.168189
0.15877
0.146046
0.131505
0.116908
0.104178
0.095001
0.090225
0.089572
0.09176
0.094938
0.097158
0.096731
0.092685
0.085091
0.074872
0.063393
0.05223
0.043024
0.037096
0.034945
0.036122
0.039547
0.043906
0.047901
0.050428
0.050888
0.049355
0.046424
0.042611
0.039206
0.037162
0.036789
0.03782
0.039696
0.041894
0.044055
0.045968
0.047399
0.048028
0.04762
0.046122
0.043651
0.040564
0.037521
0.035396
0.034955
0.036583
0.040223
0.045395
0.051212
0.056562
0.060578
0.063058
0.064476
0.06568
0.06748
0.070167
0.073125
0.074914
0.073925
0.069094
0.060357
0.048794
0.036406
0.025556
0.018336
0.016119
0.019342
0.027437
0.038855
0.051517
0.063612
0.07408
0.08246
0.088529
0.09222
0.09379
0.093835
0.093117
0.092416
0.092231
0.092486
0.092631
0.092028
0.090284
0.087353
0.083469
0.079099
0.074879
0.071459
0.069411
0.069087
0.070463
0.073268
0.077308
0.082461
0.088279
0.093754
0.097628
0.098897
0.097175
0.092963
0.087608
0.082699
0.07938
0.078145
0.078963
0.081277
0.084011
0.085994
0.08652
0.085419
0.082877
0.079494
0.076306
0.074322
0.073969
0.075062
0.077199
0.079912
0.082571
0.084624
0.085905
0.086582
0.086955
0.087453
0.088789
0.091835
0.097163
0.104603
0.113201
0.121609
0.128603
0.13332
0.135187
0.133889
0.129464
0.122315
0.113057
0.102499
0.091865
0.082759
0.076613
0.074258
0.075967
0.081339
0.088937
0.096429
0.101338
0.101858
0.097433
0.088992
0.078684
0.069075
0.062178
0.058996
0.059543
0.06298
0.067981
0.073427
0.078887
0.084414
0.090048
0.095644
0.100757
0.104342
0.104988
0.101838
0.095188
0.086262
0.07664
0.067909
0.061479
0.058152
0.057728
0.059164
0.06124
0.063203
0.065162
0.068356
0.075039
0.087788
0.108634
0.138443
0.17668
0.221493
0.26987
0.317974
0.361799
0.39777
0.422868
0.465512
0.465117
0.447633
0.386644
0.346196
0.297476
0.244225
0.190572
0.140605
0.098228
0.066651
0.01398
0.010178
0.043873
0.054335
0.067937
0.080534
0.089332
0.093635
0.094441
0.093839
0.094396
0.097991
0.104677
0.112638
0.11916
0.12166
0.118488
0.109534
0.096312
0.08118
0.066344
0.053518
0.043975
0.038365
0.036629
0.038406
0.043405
0.051206
0.060927
0.071327
0.080955
0.088102
0.091231
0.089921
0.084842
0.078261
0.071924
0.066766
0.063249
0.061533
0.061336
0.061913
0.062393
0.06213
0.060885
0.058876
0.056656
0.054884
0.053701
0.052809
0.053175
0.054636
0.056818
0.058948
0.059789
0.057988
0.052791
0.044476
0.034183
0.023394
0.013529
0.005821
0.001089
-0.000509
0.000605
0.003601
0.007208
0.009777
0.009579
0.005287
-0.003682
-0.01713
-0.033982
-0.052096
-0.068459
-0.079921
-0.084197
-0.080756
-0.071072
-0.058007
-0.044798
-0.034179
-0.027736
-0.025649
-0.02708
-0.030794
-0.035512
-0.040014
-0.043415
-0.04555
-0.046858
-0.047758
-0.04831
-0.048477
-0.048303
-0.047658
-0.046165
-0.043543
-0.039432
-0.034708
-0.030257
-0.02702
-0.025759
-0.026711
-0.029299
-0.032244
-0.034099
-0.033815
-0.031048
-0.026267
-0.020651
-0.015709
-0.01268
-0.012042
-0.013443
-0.016135
-0.019486
-0.023166
-0.027106
-0.031424
-0.036246
-0.041521
-0.046991
-0.052237
-0.056802
-0.06033
-0.062709
-0.064095
-0.064812
-0.065333
-0.066191
-0.066377
-0.067164
-0.068533
-0.070597
-0.073517
-0.077302
-0.081815
-0.086864
-0.092251
-0.097726
-0.102897
-0.107257
-0.110373
-0.112159
-0.113057
-0.114033
-0.116299
-0.120896
-0.128311
-0.138287
-0.149878
-0.161618
-0.171792
-0.178878
-0.18213
-0.181867
-0.179206
-0.175653
-0.172733
-0.171474
-0.172043
-0.173914
-0.176427
-0.17922
-0.18217
-0.185097
-0.187776
-0.190116
-0.192148
-0.193887
-0.195268
-0.196171
-0.1964
-0.195563
-0.193136
-0.188739
-0.182473
-0.175058
-0.167656
-0.161587
-0.158146
-0.158396
-0.162776
-0.170792
-0.181102
-0.192075
-0.202416
-0.211412
-0.218866
-0.224952
-0.229867
-0.233341
-0.234613
-0.233039
-0.2288
-0.223074
-0.217647
-0.214256
-0.213965
-0.216808
-0.221897
-0.22783
-0.232987
-0.235812
-0.235304
-0.231466
-0.225224
-0.217838
-0.210428
-0.203752
-0.197985
-0.192779
-0.1878
-0.183153
-0.179215
-0.17628
-0.17449
-0.174067
-0.175464
-0.179138
-0.185213
-0.193271
-0.202285
-0.210624
-0.216299
-0.217663
-0.214271
-0.207108
-0.198114
-0.189459
-0.18292
-0.179516
-0.179318
-0.181535
-0.184993
-0.18848
-0.190765
-0.190782
-0.188008
-0.182582
-0.174992
-0.165818
-0.15589
-0.146488
-0.139197
-0.135652
-0.137134
-0.143971
-0.155142
-0.168539
-0.181665
-0.192234
-0.198519
-0.199707
-0.19621
-0.189511
-0.181571
-0.174176
-0.168483
-0.164771
-0.162437
-0.160319
-0.157239
-0.152467
-0.145973
-0.138397
-0.130878
-0.124706
-0.120845
-0.119737
-0.121481
-0.12599
-0.132814
-0.140766
-0.147875
-0.151972
-0.151457
-0.145764
-0.135537
-0.122626
-0.109777
-0.0998
-0.094586
-0.094602
-0.098837
-0.105001
-0.1102
-0.11212
-0.11007
-0.105103
-0.099266
-0.094663
-0.092832
-0.094419
-0.09911
-0.10592
-0.113643
-0.121146
-0.127331
-0.131841
-0.134801
-0.136769
-0.138345
-0.139763
-0.140785
-0.140893
-0.139618
-0.136766
-0.132407
-0.126857
-0.120676
-0.114515
-0.108835
-0.103717
-0.098877
-0.093785
-0.08794
-0.08136
-0.075016
-0.070672
-0.069924
-0.073113
-0.078917
-0.084729
-0.087342
-0.114077
-0.101385
-0.046286
-0.011583
0.031752
0.080453
0.13071
0.178685
0.220959
0.254786
0.277947
0.288488
0.284932
0.266924
0.235608
0.193339
0.143264
0.089274
0.035792
-0.01302
-0.053971
-0.084948
-0.10494
-0.114311
-0.114865
-0.109233
-0.100173
-0.090439
-0.08262
-0.078347
-0.077557
-0.078791
-0.080136
-0.079765
-0.076114
-0.068537
-0.058018
-0.046902
-0.037739
-0.032313
-0.03139
-0.034652
-0.04063
-0.047126
-0.052053
-0.054043
-0.05267
-0.048498
-0.042924
-0.03768
-0.034293
-0.033728
-0.036029
-0.040207
-0.044685
-0.047911
-0.048661
-0.046121
-0.040147
-0.031567
-0.021886
-0.01257
-0.004656
0.001271
0.005237
0.00781
0.00948
0.010107
0.009109
0.005868
-0.000233
-0.009585
-0.021667
-0.034724
-0.046322
-0.054189
-0.056731
-0.053317
-0.044639
-0.032757
-0.020381
-0.009887
-0.002785
0.000517
0.00085
0.000049
0.00016
0.002492
0.007125
0.013119
0.019126
0.02402
0.027242
0.028805
0.029281
0.029704
0.031243
0.034785
0.04053
0.047786
0.055171
0.061066
0.064096
0.063496
0.059381
0.052859
0.045727
0.03991
0.036954
0.037642
0.041849
0.048649
0.056611
0.064375
0.071177
0.076916
0.081849
0.086352
0.090763
0.095243
0.099683
0.103758
0.107096
0.109432
0.110748
0.111268
0.111354
0.111454
0.11197
0.113088
0.114831
0.117274
0.120675
0.125399
0.131591
0.138732
0.145482
0.150149
0.151591
0.149783
0.145539
0.139921
0.133994
0.09507
0.125377
0.124126
0.124949
0.127269
0.130309
0.133348
0.135965
0.138063
0.1397
0.140784
0.140952
0.139993
0.13846
0.137734
0.13932
0.143908
0.150951
0.158895
0.165558
0.168546
0.165913
0.156962
0.142642
0.12518
0.107301
0.091442
0.079184
0.071122
0.066943
0.065583
0.065696
0.066315
0.066937
0.067129
0.066296
0.063869
0.059508
0.053103
0.044912
0.035822
0.027248
0.020588
0.016714
0.015897
0.017946
0.022197
0.027565
0.032871
0.037259
0.040537
0.043275
0.046398
0.050467
0.055321
0.06031
0.064671
0.067693
0.068833
0.067909
0.065167
0.061071
0.056028
0.05034
0.044273
0.038124
0.032215
0.027007
0.023223
0.021678
0.02281
0.026307
0.031124
0.035801
0.038901
0.03949
0.037585
0.034178
0.030797
0.028938
0.02968
0.03353
0.040441
0.049792
0.060385
0.070583
0.078665
0.083283
0.083786
0.08025
0.073274
0.063872
0.053579
0.044272
0.037622
0.034618
0.03545
0.039615
0.0461
0.05363
0.061022
0.067522
0.072831
0.076879
0.079759
0.081819
0.083529
0.085056
0.086124
0.086294
0.085184
0.082451
0.077844
0.071393
0.063551
0.055057
0.04662
0.038783
0.032095
0.027248
0.024935
0.025583
0.029095
0.034863
0.041951
0.049247
0.055612
0.0602
0.06281
0.063903
0.064169
0.064096
0.063918
0.063668
0.063166
0.061996
0.059619
0.055623
0.049959
0.042978
0.035469
0.028718
0.02437
0.023895
0.027944
0.036104
0.047124
0.059284
0.070661
0.079432
0.084393
0.08548
0.083826
0.081127
0.078842
0.077715
0.077778
0.07862
0.079658
0.080278
0.079997
0.078584
0.076034
0.072433
0.067881
0.062517
0.056529
0.050138
0.043801
0.03841
0.035032
0.034391
0.036507
0.040777
0.046283
0.051986
0.056814
0.05979
0.060242
0.058025
0.053583
0.047868
0.04215
0.03768
0.035238
0.034943
0.036332
0.038626
0.041064
0.043024
0.044008
0.043743
0.042287
0.040002
0.037501
0.035465
0.034324
0.033888
0.03333
0.031748
0.028912
0.025573
0.023228
0.02366
0.028692
0.04002
0.058831
0.085375
0.118699
0.156691
0.196509
0.235299
0.2709
0.30203
0.327988
0.348291
0.362451
0.369589
0.368088
0.355795
0.365482
0.329499
0.24226
0.183676
0.122682
0.034501
-0.069774
-0.098724
-0.065266
-0.025029
-0.01444
0.002077
0.019711
0.034932
0.045778
0.051556
0.052539
0.049809
0.044988
0.039752
0.035404
0.032772
0.032179
0.033338
0.035381
0.037202
0.037907
0.037158
0.035257
0.03303
0.031679
0.032584
0.036809
0.044489
0.054649
0.065554
0.075251
0.081994
0.084599
0.082725
0.076906
0.068264
0.058229
0.048418
0.040419
0.035388
0.033702
0.035069
0.038982
0.044869
0.051978
0.059371
0.065987
0.070669
0.072417
0.070844
0.066452
0.060419
0.054194
0.049268
0.046891
0.047595
0.050916
0.055729
0.060916
0.065679
0.069545
0.072411
0.074516
0.076146
0.077355
0.07798
0.077763
0.076526
0.074473
0.072382
0.071344
0.072248
0.075447
0.080821
0.087825
0.095419
0.10223
0.107069
0.109348
0.109142
0.107098
0.104263
0.101737
0.100325
0.100392
0.101838
0.104171
0.106562
0.107962
0.107504
0.105114
0.101648
0.098276
0.095791
0.09454
0.094642
0.096028
0.098458
0.101636
0.105289
0.109154
0.112899
0.116127
0.118354
0.118839
0.116834
0.112442
0.106971
0.102333
0.100217
0.101632
0.106798
0.115245
0.126213
0.139043
0.152967
0.166669
0.178457
0.186876
0.190985
0.190185
0.184255
0.173831
0.160597
0.146921
0.135348
0.127987
0.125759
0.12799
0.132812
0.138085
0.142037
0.143455
0.141813
0.137319
0.130724
0.122991
0.115135
0.108084
0.102429
0.098267
0.095256
0.092761
0.090013
0.086245
0.080811
0.073489
0.064826
0.056063
0.048599
0.043454
0.041036
0.041019
0.042209
0.042777
0.040968
0.035792
0.027273
0.016363
0.0047
-0.005866
-0.013891
-0.018809
-0.021014
-0.021559
-0.021659
-0.022188
-0.02348
-0.025442
-0.027689
-0.029572
-0.030471
-0.030314
-0.029809
-0.030123
-0.032436
-0.037642
-0.045962
-0.056604
-0.067788
-0.077235
-0.082937
-0.083827
-0.079931
-0.072118
-0.061711
-0.050261
-0.039396
-0.030408
-0.023761
-0.01922
-0.016451
-0.015358
-0.016008
-0.018585
-0.02343
-0.030821
-0.04043
-0.051148
-0.061414
-0.069663
-0.074545
-0.075044
-0.070934
-0.063237
-0.053899
-0.045076
-0.038683
-0.036056
-0.037626
-0.042808
-0.05035
-0.058912
-0.067377
-0.074901
-0.081024
-0.085726
-0.08927
-0.091937
-0.093962
-0.095647
-0.097165
-0.098228
-0.098237
-0.096714
-0.093474
-0.088517
-0.082115
-0.075062
-0.068512
-0.063361
-0.059901
-0.058022
-0.057479
-0.057945
-0.05904
-0.06053
-0.062437
-0.064818
-0.067534
-0.070289
-0.072832
-0.075134
-0.077459
-0.080324
-0.084332
-0.089831
-0.096647
-0.104261
-0.112191
-0.120175
-0.128151
-0.136082
-0.143606
-0.14977
-0.153235
-0.152872
-0.148298
-0.140126
-0.129896
-0.119825
-0.112241
-0.108728
-0.109439
-0.113082
-0.117487
-0.120289
-0.119747
-0.115495
-0.108658
-0.101284
-0.095513
-0.092758
-0.093229
-0.096025
-0.099759
-0.103359
-0.106392
-0.108878
-0.111179
-0.114007
-0.11799
-0.122951
-0.127865
-0.131508
-0.132928
-0.13157
-0.127524
-0.121772
-0.115843
-0.11097
-0.107575
-0.105554
-0.104804
-0.105279
-0.106866
-0.109553
-0.11347
-0.118562
-0.124335
-0.129877
-0.134088
-0.136163
-0.136044
-0.13447
-0.132609
-0.131609
-0.132254
-0.134631
-0.138012
-0.141312
-0.143774
-0.145209
-0.145723
-0.145496
-0.144848
-0.144127
-0.143178
-0.141337
-0.138188
-0.134133
-0.130145
-0.127377
-0.127142
-0.13073
-0.138598
-0.14977
-0.162278
-0.174053
-0.183288
-0.188328
-0.187819
-0.181156
-0.168417
-0.149788
-0.125321
-0.095183
-0.059768
-0.019605
0.024543
0.071148
0.117478
0.159801
0.194134
0.253481
0.268221
0.289452
0.227503
0.151054
0.098797
0.039668
-0.020678
-0.076826
-0.154707
-0.194931
-0.186888
-0.20099
-0.20573
-0.20378
-0.198035
-0.191156
-0.185302
-0.181825
-0.181057
-0.18253
-0.185484
-0.189118
-0.19248
-0.194605
-0.195037
-0.194138
-0.192844
-0.192041
-0.192117
-0.193085
-0.194929
-0.197639
-0.200985
-0.204625
-0.208369
-0.212131
-0.215634
-0.218419
-0.220002
-0.219775
-0.216946
-0.211066
-0.202767
-0.193666
-0.185459
-0.179196
-0.17533
-0.174097
-0.175248
-0.178439
-0.183366
-0.189057
-0.194381
-0.198343
-0.20052
-0.201155
-0.200728
-0.199537
-0.197708
-0.19535
-0.192509
-0.189068
-0.184845
-0.179897
-0.174666
-0.169722
-0.165501
-0.162318
-0.160433
-0.159932
-0.160691
-0.162525
-0.165254
-0.16866
-0.172448
-0.176187
-0.17933
-0.181287
-0.181486
-0.179667
-0.176349
-0.172765
-0.170121
-0.168816
-0.16826
-0.167308
-0.164903
-0.160509
-0.154265
-0.146932
-0.139674
-0.133711
-0.129849
-0.12818
-0.128014
-0.1281
-0.127077
-0.124074
-0.119199
-0.113533
-0.108508
-0.105116
-0.103562
-0.103352
-0.103555
-0.103083
-0.10098
-0.096757
-0.090543
-0.082846
-0.074272
-0.065551
-0.057583
-0.051199
-0.046848
-0.044571
-0.044222
-0.045517
-0.04775
-0.049738
-0.050306
-0.04875
-0.044825
-0.038676
-0.03101
-0.023087
-0.016305
-0.011742
-0.00996
-0.010966
-0.014181
-0.01855
-0.022915
-0.026395
-0.02849
-0.02907
-0.028425
-0.02716
-0.025867
-0.024848
-0.024041
-0.023064
-0.02135
-0.018442
-0.014388
-0.009968
-0.006385
-0.004649
-0.005293
-0.008339
-0.013215
-0.01884
-0.024049
-0.02816
-0.031127
-0.033346
-0.035418
-0.038047
-0.041919
-0.047383
-0.054209
-0.061801
-0.069376
-0.075897
-0.080375
-0.082531
-0.082917
-0.082417
-0.081833
-0.081848
-0.082952
-0.085174
-0.088073
-0.091142
-0.094169
-0.0971
-0.099791
-0.102195
-0.104479
-0.1066
-0.108
-0.107902
-0.105861
-0.102058
-0.097213
-0.092288
-0.088074
-0.084873
-0.082489
-0.080447
-0.078333
-0.076081
-0.074059
-0.072807
-0.072504
-0.072605
-0.072108
-0.070099
-0.066029
-0.059837
-0.052199
-0.044619
-0.038962
-0.036743
-0.038777
-0.045074
-0.054571
-0.065156
-0.074421
-0.080627
-0.082964
-0.081293
-0.075997
-0.068081
-0.058913
-0.049798
-0.04182
-0.035797
-0.031992
-0.030045
-0.029524
-0.030504
-0.033297
-0.037677
-0.042691
-0.047237
-0.050533
-0.052063
-0.051437
-0.048563
-0.043838
-0.037848
-0.03103
-0.02386
-0.016945
-0.010563
-0.004456
0.001564
0.006927
0.010427
0.011032
0.008456
0.00308
-0.004315
-0.012733
-0.021152
-0.028681
-0.034584
-0.038178
-0.038863
-0.036321
-0.030644
-0.022368
-0.012509
-0.002494
0.006037
0.011426
0.012237
0.007671
-0.001918
-0.014831
-0.028568
-0.040766
-0.049644
-0.053947
-0.053022
-0.047149
-0.037619
-0.026274
-0.014902
-0.004963
0.00266
0.007893
0.011167
0.012954
0.01354
0.013108
0.011778
0.009466
0.005903
0.000979
-0.00496
-0.010967
-0.01571
-0.018106
-0.017848
-0.015265
-0.010127
-0.002793
0.006337
0.016983
0.028675
0.040822
0.052683
0.063378
0.071953
0.077502
0.079453
0.077865
0.073496
0.067623
0.06158
0.056349
0.052479
0.050074
0.048763
0.047892
0.046889
0.045677
0.044869
0.04553
0.048542
0.053978
0.060972
0.068039
0.073603
0.076561
0.076631
0.074355
0.071024
0.068347
0.067643
0.069051
0.071432
0.072964
0.071989
0.067712
0.060507
0.05184
0.043761
0.038115
0.035917
0.037267
0.04144
0.046951
0.051908
0.054869
0.055494
0.054476
0.053246
0.053877
0.059055
0.07171
0.094226
0.127685
0.171557
0.223687
0.280551
0.33787
0.391297
0.436988
0.471993
0.494459
0.5035
0.498804
0.480399
0.448815
0.405419
0.35275
0.29472
0.236285
0.182623
0.070084
0.067875
0.084655
0.075047
0.07359
0.077041
0.082641
0.088644
0.09443
0.100239
0.10657
0.113568
0.12081
0.127487
0.132685
0.135685
0.136294
0.134968
0.13258
0.130079
0.128314
0.127954
0.129343
0.132416
0.137339
0.142768
0.147942
0.152253
0.155495
0.15771
0.158886
0.158984
0.158178
0.156867
0.155569
0.154828
0.154989
0.155943
0.157216
0.158394
0.159295
0.159779
0.159767
0.159465
0.159329
0.159558
0.15968
0.160379
0.161514
0.162765
0.163815
0.164653
0.165518
0.166593
0.167901
0.169439
0.171273
0.17341
0.175648
0.177629
0.178966
0.179404
0.17901
0.178178
0.177536
0.177813
0.179615
0.183253
0.188645
0.195217
0.201428
0.206395
0.209422
0.210118
0.20862
0.205413
0.201278
0.197213
0.194147
0.192757
0.193518
0.196797
0.202686
0.210696
0.219671
0.228077
0.23444
0.23787
0.23839
0.236855
0.23455
0.232584
0.231611
0.231945
0.233563
0.23588
0.237726
0.23772
0.234935
0.229533
0.22278
0.216547
0.212766
0.212936
0.217691
0.226576
0.23814
0.250153
0.260102
0.266085
0.267575
0.265368
0.261007
0.256244
0.252574
0.250887
0.251339
0.253538
0.256847
0.260563
0.264058
0.267036
0.269624
0.272051
0.274409
0.276792
0.279322
0.281824
0.283709
0.284261
0.282824
0.278755
0.271566
0.261435
0.249522
0.237608
0.227322
0.219575
0.214515
0.2117
0.210294
0.209532
0.209101
0.208889
0.208586
0.207728
0.206078
0.20376
0.200905
0.197374
0.192962
0.187694
0.181798
0.175413
0.168441
0.160634
0.151771
0.142059
0.132442
0.124332
0.118973
0.116898
0.117743
0.120412
0.123342
0.124796
0.123314
0.11822
0.109898
0.099531
0.088587
0.078343
0.069441
0.061701
0.054555
0.047761
0.041697
0.037116
0.034836
0.035633
0.039893
0.04696
0.054925
0.061306
0.064019
0.062135
0.056289
0.048598
0.041837
0.038097
0.038019
0.041147
0.04658
0.053277
0.060213
0.06659
0.072022
0.076485
0.079993
0.082392
0.083244
0.0819
0.07796
0.0718
0.064614
0.05805
0.053594
0.051967
0.052815
0.054922
0.056924
0.057795
0.056698
0.052864
0.045899
0.036065
0.02428
0.011983
0.000949
-0.007114
-0.011256
-0.011503
-0.008413
-0.002872
0.003709
0.00958
0.013418
0.01491
0.01455
0.013126
0.011362
0.009531
0.007151
0.003277
-0.002728
-0.010616
-0.019335
-0.027422
-0.033252
-0.035444
-0.033495
-0.028125
-0.021037
-0.014274
-0.009576
-0.007976
-0.009594
-0.013753
-0.019434
-0.025706
-0.031816
-0.037061
-0.040832
-0.042868
-0.043317
-0.04256
-0.041105
-0.039571
-0.038568
-0.038455
-0.039301
-0.04102
-0.043433
-0.046202
-0.048894
-0.051314
-0.053677
-0.056252
-0.058972
-0.061472
-0.063378
-0.064426
-0.064393
-0.063129
-0.060731
-0.057559
-0.054199
-0.051462
-0.050252
-0.051184
-0.054204
-0.0586
-0.063395
-0.06773
-0.070982
-0.07282
-0.073254
-0.072603
-0.071339
-0.069994
-0.06909
-0.068896
-0.069274
-0.069899
-0.070631
-0.071652
-0.073227
-0.07539
-0.077817
-0.079938
-0.081253
-0.081594
-0.081191
-0.080586
-0.08039
-0.081001
-0.082482
-0.084678
-0.087399
-0.090369
-0.093098
-0.095107
-0.096394
-0.097409
-0.098523
-0.099803
-0.101353
-0.103507
-0.106544
-0.110567
-0.115796
-0.122525
-0.130504
-0.13871
-0.145978
-0.15155
-0.154991
-0.156009
-0.154708
-0.151826
-0.148436
-0.145445
-0.143492
-0.142979
-0.14378
-0.145014
-0.145228
-0.142682
-0.135498
-0.121808
-0.099978
-0.068841
-0.028034
0.021455
0.077009
0.134704
0.189763
0.236869
0.343378
0.370749
0.334435
0.304186
0.252536
0.163912
0.097508
0.026799
-0.043208
-0.107925
-0.16321
-0.237533
-0.267631
-0.28022
-0.250923
-0.242385
-0.227441
-0.210067
-0.193522
-0.180144
-0.171406
-0.167952
-0.169532
-0.175145
-0.183454
-0.193064
-0.20271
-0.211416
-0.218561
-0.223885
-0.227357
-0.228915
-0.228611
-0.226803
-0.2241
-0.221084
-0.21804
-0.215063
-0.212386
-0.210557
-0.210345
-0.212356
-0.216687
-0.22294
-0.230324
-0.237747
-0.244071
-0.24836
-0.249986
-0.248703
-0.244853
-0.239492
-0.234006
-0.229445
-0.226276
-0.224621
-0.224424
-0.225391
-0.227025
-0.228924
-0.230955
-0.233019
-0.234848
-0.236213
-0.23712
-0.237663
-0.23784
-0.237654
-0.237227
-0.236625
-0.235534
-0.233358
-0.229733
-0.22485
-0.21932
-0.213918
-0.209542
-0.20709
-0.206949
-0.208637
-0.211094
-0.213261
-0.214348
-0.213884
-0.211901
-0.209
-0.205857
-0.202649
-0.199109
-0.194995
-0.190257
-0.184863
-0.178966
-0.173369
-0.169503
-0.168595
-0.170875
-0.175538
-0.181183
-0.186068
-0.188318
-0.186598
-0.180791
-0.171851
-0.161158
-0.150081
-0.139847
-0.131418
-0.125387
-0.122035
-0.12153
-0.123955
-0.129034
-0.135881
-0.143094
-0.149132
-0.152518
-0.151863
-0.146187
-0.135511
-0.121095
-0.10497
-0.089179
-0.075375
-0.064795
-0.058169
-0.055604
-0.056827
-0.061401
-0.068494
-0.076872
-0.085506
-0.093994
-0.102164
-0.10958
-0.115652
-0.119914
-0.121849
-0.1207
-0.1158
-0.107053
-0.09502
-0.080794
-0.066057
-0.05308
-0.044131
-0.040626
-0.042758
-0.049714
-0.060074
-0.072032
-0.083588
-0.093063
-0.099604
-0.103262
-0.104709
-0.104933
-0.105
-0.105765
-0.107614
-0.110478
-0.113995
-0.117692
-0.121066
-0.123744
-0.125705
-0.127337
-0.129353
-0.132576
-0.137503
-0.143862
-0.150726
-0.157036
-0.161883
-0.164392
-0.163871
-0.160359
-0.154742
-0.148258
-0.142107
-0.137452
-0.135288
-0.136032
-0.139318
-0.144193
-0.14936
-0.153315
-0.154585
-0.151989
-0.144929
-0.133718
-0.11975
-0.105192
-0.092263
-0.08264
-0.077267
-0.076282
-0.079046
-0.084476
-0.091408
-0.098715
-0.105341
-0.110506
-0.114
-0.116078
-0.117148
-0.117703
-0.118352
-0.119671
-0.121891
-0.124812
-0.127914
-0.130382
-0.131104
-0.129074
-0.12389
-0.116004
-0.106741
-0.097797
-0.090548
-0.085744
-0.083632
-0.084051
-0.086319
-0.089267
-0.091548
-0.092
-0.089959
-0.085602
-0.079979
-0.074483
-0.069983
-0.066541
-0.06391
-0.061833
-0.059745
-0.05675
-0.052222
-0.046268
-0.039627
-0.033455
-0.02918
-0.028062
-0.030508
-0.035995
-0.043781
-0.053427
-0.064505
-0.076039
-0.086508
-0.094489
-0.098975
-0.099122
-0.094308
-0.084655
-0.071279
-0.055924
-0.040525
-0.027131
-0.017671
-0.013283
-0.014019
-0.019215
-0.027975
-0.039205
-0.0514
-0.062784
-0.071648
-0.076456
-0.076067
-0.070274
-0.060028
-0.047125
-0.0336
-0.021273
-0.011518
-0.005035
-0.001699
-0.000747
-0.001223
-0.002299
-0.0034
-0.004199
-0.004558
-0.004398
-0.003489
-0.001411
0.002104
0.006664
0.011155
0.014434
0.016107
0.016635
0.01693
0.017943
0.020363
0.024301
0.02909
0.033542
0.036575
0.0376
0.036532
0.033662
0.029533
0.024885
0.020673
0.017904
0.017296
0.019084
0.023059
0.028624
0.034759
0.040066
0.043046
0.042432
0.037664
0.029449
0.019909
0.011904
0.007792
0.008399
0.012906
0.019515
0.026246
0.03161
0.034919
0.036297
0.036603
0.037229
0.039606
0.044445
0.051296
0.058746
0.064979
0.068392
0.068161
0.064496
0.058527
0.052021
0.047025
0.045685
0.050121
0.062151
0.082929
0.112727
0.150985
0.196267
0.246083
0.297095
0.345722
0.388724
0.423617
0.44875
0.463029
0.465605
0.4557
0.432785
0.430191
0.412209
0.293832
0.23336
0.173833
0.085457
0.037651
0.013478
0.035968
0.032661
0.037293
0.046453
0.057354
0.067813
0.076212
0.081559
0.083422
0.081904
0.077799
0.07262
0.068181
0.0659
0.066276
0.068791
0.071956
0.073839
0.073182
0.070171
0.066192
0.063004
0.062059
0.0641
0.068769
0.074497
0.079144
0.080969
0.079355
0.075073
0.069938
0.066093
0.065122
0.06747
0.072535
0.079232
0.086414
0.09297
0.097828
0.100117
0.099528
0.096451
0.091802
0.086719
